kernel_id,importance_raw,importance_coral,change,change_pct,dilation
0,0.000178,0.000226,4.8e-05,27.0,1
1,0.000231,0.000153,-7.8e-05,-33.68,1
2,0.000191,0.000212,2e-05,10.52,1
3,0.000249,0.000236,-1.3e-05,-5.23,1
4,0.000233,0.000247,1.4e-05,5.88,1
5,0.000241,0.000288,4.7e-05,19.3,1
6,0.00021,0.000224,1.5e-05,6.97,1
7,0.000431,0.000281,-0.00015,-34.86,1
8,0.000178,0.000192,1.4e-05,7.65,1
9,0.000297,0.000276,-2.1e-05,-7.22,1
10,0.000191,0.000207,1.5e-05,8.03,1
11,0.000249,0.000234,-1.5e-05,-5.97,1
12,0.000233,0.00024,7e-06,2.97,1
13,0.000269,0.000198,-7e-05,-26.16,1
14,0.000272,0.000273,1e-06,0.29,1
15,0.000362,0.000344,-1.8e-05,-4.91,1
16,0.000178,0.000202,2.4e-05,13.2,1
17,0.000286,0.000198,-8.7e-05,-30.61,1
18,0.000237,0.000267,3e-05,12.7,1
19,0.000357,0.000396,3.8e-05,10.76,1
20,0.000234,0.000238,4e-06,1.85,1
21,0.000288,0.000225,-6.3e-05,-21.75,1
22,0.000257,0.000263,6e-06,2.28,1
23,0.000502,0.000419,-8.3e-05,-16.54,1
24,0.00016,0.000244,8.4e-05,52.3,1
25,0.000291,0.000323,3.2e-05,10.83,1
26,0.000212,0.000271,5.9e-05,27.97,1
27,0.000277,0.000242,-3.5e-05,-12.65,1
28,0.000178,0.000182,4e-06,2.51,1
29,0.000285,0.000329,4.4e-05,15.32,1
30,0.000283,0.000265,-1.7e-05,-6.1,1
31,0.000234,0.000156,-7.8e-05,-33.47,1
32,0.000152,0.000175,2.3e-05,15.24,1
33,0.000297,0.000278,-1.9e-05,-6.31,1
34,0.000191,0.000214,2.2e-05,11.66,1
35,0.000193,0.000202,1e-05,4.97,1
36,0.000165,0.000152,-1.3e-05,-7.82,1
37,0.000288,0.000292,5e-06,1.61,1
38,0.000286,0.00029,4e-06,1.37,1
39,0.00035,0.000305,-4.6e-05,-13.03,1
40,0.000178,0.000192,1.3e-05,7.57,1
41,0.000231,0.000228,-3e-06,-1.29,1
42,0.000136,0.000162,2.6e-05,19.2,1
43,0.000243,0.000274,3e-05,12.51,1
44,0.000233,0.000249,1.5e-05,6.53,1
45,0.000228,0.000293,6.5e-05,28.6,1
46,0.0003,0.000281,-1.9e-05,-6.44,1
47,0.000471,0.000356,-0.000115,-24.39,1
48,0.000147,0.000146,-2e-06,-1.25,1
49,0.000341,0.000319,-2.3e-05,-6.64,1
50,0.000289,0.000272,-1.7e-05,-5.81,1
51,0.000243,0.000237,-7e-06,-2.71,1
52,0.000141,0.000134,-7e-06,-5.28,1
53,0.000288,0.000296,8e-06,2.81,1
54,0.000283,0.000298,1.5e-05,5.37,1
55,0.000239,0.000204,-3.5e-05,-14.47,1
56,0.000147,0.000146,-1e-06,-0.7,1
57,0.000156,0.000215,5.9e-05,38.06,1
58,0.000237,0.000252,1.5e-05,6.15,1
59,0.000357,0.000364,7e-06,1.87,1
60,0.000174,0.000152,-2.3e-05,-12.94,1
61,0.000288,0.000296,8e-06,2.94,1
62,0.000283,0.000282,-1e-06,-0.33,1
63,0.00037,0.000363,-7e-06,-1.84,1
64,0.00016,0.000206,4.6e-05,28.64,1
65,0.000253,0.000298,4.5e-05,17.79,1
66,0.000222,0.000216,-5e-06,-2.39,1
67,0.000246,0.000279,3.2e-05,13.15,1
68,0.000174,0.000155,-2e-05,-11.32,1
69,0.000356,0.000335,-2.2e-05,-6.05,1
70,0.000272,0.000282,1e-05,3.53,1
71,0.000484,0.000305,-0.000179,-37.02,1
72,0.000265,0.000249,-1.6e-05,-5.96,1
73,0.000286,0.000273,-1.2e-05,-4.3,1
74,0.000257,0.000258,1e-06,0.45,1
75,0.000193,0.000197,5e-06,2.35,1
76,0.000174,0.000156,-1.8e-05,-10.34,1
77,0.000285,0.000295,9e-06,3.26,1
78,0.000283,0.000299,1.6e-05,5.6,1
79,0.000239,0.000217,-2.2e-05,-9.32,1
80,0.00016,0.000189,2.9e-05,18.18,1
81,0.000311,0.000324,1.3e-05,4.18,1
82,0.000149,0.000166,1.8e-05,11.8,1
83,0.000243,0.000234,-1e-05,-4.0,1
84,0.000234,0.000235,1e-06,0.26,1
85,0.000241,0.000265,2.4e-05,9.93,1
86,0.000283,0.000282,-1e-06,-0.42,1
87,0.000234,0.000208,-2.6e-05,-11.22,1
88,0.000264,0.000268,4e-06,1.48,1
89,0.000291,0.000324,3.3e-05,11.21,1
90,0.000289,0.000274,-1.5e-05,-5.23,1
91,0.000298,0.0003,2e-06,0.74,1
92,0.000234,0.000242,8e-06,3.46,1
93,0.000186,0.000181,-5e-06,-2.55,1
94,0.00016,0.000162,2e-06,1.32,1
95,0.00035,0.000334,-1.7e-05,-4.77,1
96,0.00016,0.000182,2.2e-05,13.64,1
97,0.000305,0.000332,2.7e-05,8.74,1
98,0.000136,0.000145,9e-06,6.6,1
99,0.000246,0.000264,1.8e-05,7.41,1
100,0.000141,0.000136,-6e-06,-4.16,1
101,0.000241,0.000262,2.1e-05,8.77,1
102,0.00016,0.000161,1e-06,0.75,1
103,0.000362,0.000358,-4e-06,-1.04,1
104,0.000152,0.000148,-5e-06,-3.07,1
105,0.000305,0.000328,2.3e-05,7.58,1
106,0.000244,0.000246,2e-06,0.93,1
107,0.000249,0.000248,-1e-06,-0.49,1
108,0.000239,0.000217,-2.2e-05,-9.16,1
109,0.000228,0.000267,3.9e-05,17.35,1
110,0.00039,0.000303,-8.8e-05,-22.49,1
111,0.000362,0.000362,0.0,0.13,1
112,0.000178,0.000171,-7e-06,-4.0,1
113,0.000357,0.000323,-3.4e-05,-9.4,1
114,0.000212,0.000246,3.4e-05,16.15,1
115,0.000327,0.000329,2e-06,0.58,1
116,0.000233,0.000258,2.5e-05,10.6,1
117,0.000186,0.000181,-4e-06,-2.38,1
118,0.0003,0.000292,-8e-06,-2.72,1
119,0.000239,0.000225,-1.4e-05,-5.92,1
120,0.000147,0.000147,-0.0,-0.29,1
121,0.000305,0.000326,2.1e-05,6.72,1
122,0.000257,0.000258,1e-06,0.31,1
123,0.000133,0.00013,-3e-06,-1.89,1
124,0.000234,0.000244,1e-05,4.41,1
125,0.000288,0.000293,6e-06,1.96,1
126,0.000283,0.000301,1.8e-05,6.4,1
127,0.000493,0.00042,-7.3e-05,-14.79,1
128,0.000178,0.000205,2.7e-05,14.93,1
129,0.000341,0.000333,-9e-06,-2.58,1
130,0.000244,0.000245,1e-06,0.61,1
131,0.000298,0.000294,-5e-06,-1.57,1
132,0.000203,0.000191,-1.2e-05,-5.7,1
133,0.000288,0.000294,6e-06,2.22,1
134,0.000272,0.000286,1.4e-05,5.16,1
135,0.000371,0.000303,-6.8e-05,-18.37,1
136,0.000267,0.000259,-8e-06,-2.86,1
137,0.000357,0.000332,-2.5e-05,-6.93,1
138,0.000212,0.000238,2.7e-05,12.62,1
139,0.000243,0.000247,4e-06,1.63,1
140,0.000233,0.000256,2.3e-05,9.7,1
141,0.000228,0.000249,2.1e-05,9.29,1
142,0.00039,0.00036,-3e-05,-7.73,1
143,0.000471,0.000415,-5.7e-05,-12.02,1
144,0.000178,0.00018,3e-06,1.5,1
145,0.000341,0.000335,-7e-06,-1.91,1
146,0.000257,0.000262,5e-06,2.11,1
147,0.000327,0.000335,8e-06,2.39,1
148,0.000141,0.000135,-7e-06,-4.6,1
149,0.000186,0.000183,-3e-06,-1.39,1
150,0.00021,0.00023,2e-05,9.64,1
151,0.00035,0.000344,-7e-06,-1.94,1
152,0.000178,0.000168,-1e-05,-5.83,1
153,0.000341,0.000339,-2e-06,-0.71,1
154,0.000212,0.000234,2.2e-05,10.6,1
155,0.000243,0.000233,-1e-05,-4.25,1
156,0.000174,0.000159,-1.6e-05,-8.91,1
157,0.000189,0.000225,3.7e-05,19.4,1
158,0.0003,0.000296,-4e-06,-1.46,1
159,0.00037,0.000367,-3e-06,-0.8,1
160,0.000267,0.000261,-5e-06,-1.96,1
161,0.000231,0.000229,-2e-06,-0.98,1
162,0.000257,0.000265,8e-06,3.0,1
163,0.000327,0.000336,9e-06,2.69,1
164,0.000203,0.000193,-9e-06,-4.46,1
165,0.000285,0.00029,5e-06,1.59,1
166,0.000283,0.000282,-0.0,-0.1,1
167,0.000502,0.000463,-3.9e-05,-7.76,1
168,0.000178,0.000178,1e-06,0.29,1
169,0.000134,0.000151,1.7e-05,12.59,1
170,0.000237,0.000247,1e-05,4.18,1
171,0.00025,0.000294,4.4e-05,17.59,1
172,0.000165,0.000161,-4e-06,-2.6,1
173,0.000288,0.000293,6e-06,1.91,1
174,0.000283,0.000283,0.0,0.1,1
175,0.00035,0.000352,2e-06,0.57,1
176,0.000219,0.000232,1.4e-05,6.35,1
177,0.000297,0.000276,-2.1e-05,-6.99,1
178,0.000149,0.000163,1.4e-05,9.49,1
179,0.000281,0.000285,4e-06,1.45,1
180,0.000165,0.000162,-3e-06,-2.03,1
181,0.000158,0.00016,2e-06,1.48,1
182,0.0003,0.000298,-2e-06,-0.74,1
183,0.000493,0.000482,-1.1e-05,-2.25,1
184,0.000152,0.000143,-9e-06,-5.97,1
185,0.000134,0.000147,1.3e-05,9.47,1
186,0.000191,0.000202,1.1e-05,5.56,1
187,0.000133,0.000127,-6e-06,-4.32,1
188,0.000174,0.000162,-1.3e-05,-7.33,1
189,0.000158,0.000159,1e-06,0.55,1
190,0.000286,0.000284,-2e-06,-0.75,1
191,0.00037,0.000371,1e-06,0.21,1
192,0.000231,0.00023,-1e-06,-0.3,1
193,0.000253,0.000265,1.2e-05,4.7,1
194,0.000191,0.0002,9e-06,4.76,1
195,0.000133,0.000127,-6e-06,-4.19,1
196,0.000233,0.000255,2.2e-05,9.32,1
197,0.000231,0.000231,0.0,0.05,1
198,0.000286,0.000283,-3e-06,-1.11,1
199,0.000239,0.000226,-1.3e-05,-5.48,1
200,0.00016,0.00018,2e-05,12.32,1
201,0.000253,0.000262,9e-06,3.44,1
202,0.000191,0.000199,8e-06,4.0,1
203,0.00025,0.000291,4.1e-05,16.32,1
204,0.000234,0.000242,8e-06,3.43,1
205,0.000158,0.000158,0.0,0.13,1
206,0.000267,0.000266,-1e-06,-0.28,1
207,0.000493,0.000498,5e-06,1.06,1
208,0.000152,0.000143,-9e-06,-6.01,1
209,0.000156,0.000195,3.9e-05,25.1,1
210,0.000222,0.000232,1e-05,4.48,1
211,0.000277,0.000268,-9e-06,-3.35,1
212,0.000188,0.000196,8e-06,4.29,1
213,0.000356,0.00033,-2.7e-05,-7.52,1
214,0.000286,0.000282,-4e-06,-1.29,1
215,0.000493,0.000506,1.3e-05,2.7,1
216,0.000296,0.000331,3.5e-05,11.81,1
217,0.000368,0.000376,8e-06,2.24,1
218,0.000244,0.000244,1e-06,0.25,1
219,0.000246,0.000272,2.6e-05,10.66,1
220,0.000239,0.000232,-7e-06,-3.04,1
221,0.000231,0.000232,2e-06,0.69,1
222,0.000283,0.000306,2.3e-05,8.04,1
223,0.000502,0.000476,-2.6e-05,-5.24,1
224,0.00016,0.000178,1.8e-05,11.02,1
225,0.000286,0.00028,-5e-06,-1.9,1
226,0.000257,0.000261,4e-06,1.51,1
227,0.000298,0.000286,-1.2e-05,-4.02,1
228,0.000193,0.000234,4.1e-05,21.08,1
229,0.000231,0.000234,4e-06,1.6,1
230,0.000286,0.000282,-4e-06,-1.31,1
231,0.000502,0.000485,-1.7e-05,-3.46,1
232,0.000296,0.000326,3e-05,10.31,1
233,0.000305,0.000321,1.6e-05,5.21,1
234,0.000149,0.000157,8e-06,5.45,1
235,0.00025,0.000285,3.5e-05,14.03,1
236,0.000188,0.000196,8e-06,3.99,1
237,0.000269,0.00025,-1.9e-05,-6.97,1
238,0.0003,0.000299,-1e-06,-0.31,1
239,0.000668,0.000653,-1.5e-05,-2.24,1
240,0.000264,0.000261,-3e-06,-1.01,1
241,0.000297,0.000271,-2.6e-05,-8.88,1
242,0.000212,0.000225,1.4e-05,6.47,1
243,0.00025,0.000281,3e-05,12.14,1
244,0.000234,0.000244,1e-05,4.36,1
245,0.000189,0.000212,2.4e-05,12.54,1
246,0.000267,0.000276,9e-06,3.33,1
247,0.000502,0.000493,-9e-06,-1.78,1
248,0.000231,0.000224,-6e-06,-2.74,1
249,0.000286,0.000284,-1e-06,-0.52,1
250,0.000191,0.000199,8e-06,4.17,1
251,0.000246,0.000274,2.7e-05,11.09,1
252,0.000141,0.000134,-8e-06,-5.47,1
253,0.000288,0.000292,5e-06,1.63,1
254,0.000369,0.000362,-6e-06,-1.67,1
255,0.000371,0.000309,-6.2e-05,-16.69,1
256,0.000178,0.000166,-1.2e-05,-6.74,1
257,0.000231,0.000231,0.0,0.14,1
258,0.000213,0.000192,-2.1e-05,-9.71,1
259,0.000327,0.00034,1.3e-05,3.85,1
260,0.000174,0.000163,-1.1e-05,-6.48,1
261,0.000228,0.000257,2.9e-05,12.93,1
262,0.00021,0.000226,1.7e-05,8.05,1
263,0.000431,0.00044,9e-06,2.12,1
264,0.000178,0.000166,-1.2e-05,-6.86,1
265,0.000231,0.000233,3e-06,1.09,1
266,0.000257,0.00026,3e-06,1.07,1
267,0.000243,0.000228,-1.6e-05,-6.47,1
268,0.000141,0.000134,-7e-06,-5.18,1
269,0.000231,0.000236,5e-06,2.21,1
270,0.000272,0.000286,1.4e-05,5.29,1
271,0.00037,0.000373,3e-06,0.87,1
272,0.000265,0.000252,-1.2e-05,-4.56,1
273,0.000253,0.000259,5e-06,2.09,1
274,0.000212,0.000224,1.2e-05,5.9,1
275,0.000327,0.000338,1.1e-05,3.37,1
276,0.000165,0.000164,-1e-06,-0.44,1
277,0.000158,0.000158,0.0,0.13,1
278,0.00016,0.000161,1e-06,0.7,1
279,0.000502,0.0005,-2e-06,-0.48,1
280,0.000178,0.000209,3.1e-05,17.18,1
281,0.000156,0.000187,3.1e-05,19.9,1
282,0.000222,0.000229,7e-06,3.19,1
283,0.000281,0.000286,5e-06,1.65,1
284,0.000165,0.000165,-0.0,-0.28,1
285,0.000186,0.000179,-7e-06,-3.57,1
286,0.00016,0.00016,1e-06,0.34,1
287,0.000484,0.000377,-0.000107,-22.09,1
288,0.00016,0.000177,1.7e-05,10.65,1
289,0.000368,0.000369,1e-06,0.38,1
290,0.000289,0.000285,-4e-06,-1.22,1
291,0.000246,0.000273,2.7e-05,10.93,1
292,0.000165,0.000166,0.0,0.24,1
293,0.000189,0.000211,2.3e-05,12.16,1
294,0.000314,0.000306,-8e-06,-2.48,1
295,0.000668,0.000706,3.9e-05,5.8,1
296,0.000178,0.000207,2.9e-05,16.1,1
297,0.000134,0.000143,9e-06,6.84,1
298,0.000136,0.000139,3e-06,2.02,1
299,0.000243,0.000243,0.0,0.05,1
300,0.000203,0.000194,-8e-06,-3.98,1
301,0.000228,0.000254,2.6e-05,11.5,1
302,0.000267,0.000287,2e-05,7.45,1
303,0.000362,0.000367,5e-06,1.35,1
304,0.000231,0.000225,-6e-06,-2.53,1
305,0.000253,0.000258,5e-06,1.79,1
306,0.000212,0.000224,1.2e-05,5.63,1
307,0.000249,0.000248,-2e-06,-0.61,1
308,0.000174,0.000164,-1.1e-05,-6.24,1
309,0.000282,0.000282,-1e-06,-0.25,1
310,0.00039,0.000379,-1.2e-05,-2.97,1
311,0.000362,0.000368,7e-06,1.86,1
312,0.000219,0.00023,1.2e-05,5.33,1
313,0.000286,0.000286,0.0,0.15,1
314,0.000244,0.000245,1e-06,0.34,1
315,0.000243,0.000227,-1.6e-05,-6.65,1
316,0.000203,0.000196,-6e-06,-3.07,1
317,0.000158,0.000157,-1e-06,-0.43,1
318,0.000286,0.000283,-3e-06,-0.94,1
319,0.000234,0.000211,-2.3e-05,-9.79,1
320,0.000265,0.000262,-3e-06,-1.12,1
321,0.000311,0.000349,3.8e-05,12.13,1
322,0.000289,0.000291,2e-06,0.81,1
323,0.00025,0.00028,3e-05,11.85,1
324,0.000203,0.000198,-5e-06,-2.41,1
325,0.000158,0.000157,-0.0,-0.21,1
326,0.000267,0.000289,2.2e-05,8.43,1
327,0.000493,0.000512,1.9e-05,3.94,1
328,0.000219,0.000228,1e-05,4.51,1
329,0.000368,0.000371,4e-06,1.02,1
330,0.000237,0.000244,7e-06,3.12,1
331,0.000243,0.000228,-1.6e-05,-6.37,1
332,0.000234,0.000244,1e-05,4.33,1
333,0.000259,0.000274,1.5e-05,5.81,1
334,0.0003,0.000302,2e-06,0.75,1
335,0.000431,0.000449,1.8e-05,4.27,1
336,0.000152,0.000148,-4e-06,-2.83,1
337,0.000368,0.000372,4e-06,1.2,1
338,0.000213,0.000197,-1.6e-05,-7.55,1
339,0.000327,0.000338,1.1e-05,3.23,1
340,0.000203,0.000199,-4e-06,-1.94,1
341,0.000285,0.000272,-1.3e-05,-4.73,1
342,0.0003,0.000303,3e-06,0.99,1
343,0.000371,0.000319,-5.2e-05,-13.99,1
344,0.000231,0.000224,-6e-06,-2.72,1
345,0.000286,0.000288,2e-06,0.79,1
346,0.000222,0.000227,5e-06,2.25,1
347,0.00025,0.000277,2.7e-05,10.59,1
348,0.000234,0.000244,1e-05,4.42,1
349,0.000282,0.000281,-1e-06,-0.46,1
350,0.000369,0.000354,-1.5e-05,-4.02,1
351,0.000502,0.000506,4e-06,0.84,1
352,0.000296,0.000324,2.8e-05,9.63,1
353,0.000368,0.000373,5e-06,1.31,1
354,0.000213,0.000198,-1.4e-05,-6.77,1
355,0.000246,0.000272,2.6e-05,10.39,1
356,0.000233,0.00025,1.7e-05,7.23,1
357,0.000288,0.00029,2e-06,0.87,1
358,0.000286,0.000283,-3e-06,-1.03,1
359,0.000484,0.000423,-6.1e-05,-12.62,1
360,0.000178,0.000169,-9e-06,-5.08,1
361,0.000368,0.000371,4e-06,1.02,1
362,0.000212,0.000226,1.4e-05,6.59,1
363,0.000277,0.000268,-9e-06,-3.33,1
364,0.000165,0.000167,1e-06,0.82,1
365,0.000189,0.000206,1.7e-05,9.17,1
366,0.000257,0.000255,-2e-06,-0.92,1
367,0.000431,0.000454,2.2e-05,5.21,1
368,0.00016,0.000177,1.7e-05,10.51,1
369,0.000134,0.000141,7e-06,5.22,1
370,0.000237,0.000244,7e-06,2.81,1
371,0.000249,0.00025,1e-06,0.41,1
372,0.000193,0.00023,3.7e-05,19.33,1
373,0.000189,0.000205,1.6e-05,8.64,1
374,0.000286,0.000283,-2e-06,-0.82,1
375,0.00035,0.000358,8e-06,2.15,1
376,0.000152,0.000151,-1e-06,-0.98,1
377,0.000231,0.000236,6e-06,2.4,1
378,0.000237,0.000244,6e-06,2.73,1
379,0.000281,0.000284,2e-06,0.82,1
380,0.000193,0.000228,3.5e-05,18.02,1
381,0.000228,0.000254,2.7e-05,11.73,1
382,0.000283,0.000305,2.2e-05,7.69,1
383,0.000234,0.000215,-1.9e-05,-8.13,1
384,0.000178,0.000171,-7e-06,-3.96,1
385,0.000286,0.000289,3e-06,1.0,1
386,0.000149,0.000153,5e-06,3.04,1
387,0.000243,0.000242,-2e-06,-0.7,1
388,0.000234,0.000245,1.1e-05,4.88,1
389,0.000259,0.000274,1.5e-05,5.62,1
390,0.000283,0.000306,2.3e-05,8.23,1
391,0.000371,0.000328,-4.3e-05,-11.57,1
392,0.000178,0.000205,2.7e-05,15.43,1
393,0.000311,0.000349,3.8e-05,12.21,1
394,0.000191,0.000197,6e-06,3.13,1
395,0.000193,0.00019,-3e-06,-1.32,1
396,0.000282,0.00032,3.8e-05,13.52,1
397,0.000186,0.00018,-6e-06,-3.22,1
398,0.00039,0.000386,-5e-06,-1.24,1
399,0.000362,0.000368,6e-06,1.77,1
400,0.000152,0.00015,-2e-06,-1.32,1
401,0.000134,0.00014,6e-06,4.36,1
402,0.000191,0.000197,5e-06,2.75,1
403,0.00025,0.000276,2.5e-05,10.1,1
404,0.000188,0.000194,6e-06,3.38,1
405,0.000186,0.00018,-5e-06,-2.93,1
406,0.0003,0.000303,3e-06,1.09,1
407,0.000239,0.000229,-1e-05,-4.11,1
408,0.000178,0.000169,-9e-06,-5.03,1
409,0.000311,0.000348,3.7e-05,11.91,1
410,0.000136,0.000137,1e-06,0.58,1
411,0.000249,0.000252,3e-06,1.1,1
412,0.000165,0.000167,2e-06,1.38,1
413,0.000186,0.000181,-5e-06,-2.79,1
414,0.0003,0.000304,4e-06,1.39,1
415,0.000234,0.000218,-1.6e-05,-6.84,1
416,0.000219,0.000226,8e-06,3.45,1
417,0.000231,0.000237,6e-06,2.72,1
418,0.000212,0.000224,1.2e-05,5.76,1
419,0.000249,0.000253,4e-06,1.67,1
420,0.000165,0.000168,3e-06,1.89,1
421,0.000228,0.000253,2.6e-05,11.22,1
422,0.0003,0.000305,5e-06,1.6,1
423,0.00035,0.00036,1e-05,2.76,1
424,0.000265,0.000257,-7e-06,-2.76,1
425,0.000311,0.000347,3.6e-05,11.52,1
426,0.000257,0.000258,1e-06,0.33,1
427,0.00025,0.000273,2.3e-05,9.05,1
428,0.000203,0.000198,-4e-06,-2.15,1
429,0.000158,0.000157,-1e-06,-0.42,1
430,0.00021,0.000227,1.8e-05,8.43,1
431,0.000371,0.000335,-3.7e-05,-9.87,1
432,0.000178,0.000171,-6e-06,-3.65,1
433,0.000156,0.000184,2.8e-05,18.05,1
434,0.000257,0.000239,-1.8e-05,-6.95,1
435,0.000246,0.000271,2.4e-05,9.89,1
436,0.000174,0.000164,-1e-05,-5.8,1
437,0.000186,0.00018,-6e-06,-3.21,1
438,0.000257,0.00026,3e-06,1.21,1
439,0.000371,0.00034,-3.1e-05,-8.31,1
440,0.000267,0.00026,-7e-06,-2.47,1
441,0.000305,0.000322,1.7e-05,5.49,1
442,0.000237,0.000243,6e-06,2.61,1
443,0.000246,0.000269,2.3e-05,9.25,1
444,0.000234,0.000247,1.3e-05,5.52,1
445,0.000189,0.000204,1.6e-05,8.38,1
446,0.000283,0.00028,-2e-06,-0.82,1
447,0.00035,0.000362,1.1e-05,3.23,1
448,0.00016,0.000175,1.5e-05,9.46,1
449,0.000291,0.000324,3.3e-05,11.19,1
450,0.000257,0.000258,1e-06,0.54,1
451,0.000243,0.000231,-1.3e-05,-5.22,1
452,0.000259,0.000247,-1.2e-05,-4.45,1
453,0.000269,0.000256,-1.3e-05,-4.81,1
454,0.000286,0.000284,-2e-06,-0.68,1
455,0.00037,0.00037,-0.0,-0.02,1
456,0.000264,0.000262,-2e-06,-0.69,1
457,0.000231,0.000238,8e-06,3.34,1
458,0.000289,0.000295,6e-06,2.13,1
459,0.000277,0.000269,-7e-06,-2.69,1
460,0.000178,0.000171,-6e-06,-3.55,1
461,0.000228,0.000252,2.5e-05,10.88,1
462,0.00039,0.000388,-3e-06,-0.73,1
463,0.000362,0.000369,7e-06,1.97,1
464,0.000178,0.000169,-9e-06,-5.01,1
465,0.000305,0.000321,1.6e-05,5.13,1
466,0.000149,0.000153,4e-06,2.57,1
467,0.000281,0.000284,3e-06,0.95,1
468,0.000178,0.000172,-6e-06,-3.39,1
469,0.000189,0.000202,1.4e-05,7.34,1
470,0.00021,0.000226,1.6e-05,7.69,1
471,0.000471,0.000436,-3.5e-05,-7.47,1
472,0.000178,0.000205,2.7e-05,14.99,1
473,0.000134,0.000138,5e-06,3.38,1
474,0.000213,0.000199,-1.4e-05,-6.62,1
475,0.000298,0.000267,-3.1e-05,-10.38,1
476,0.000193,0.000226,3.3e-05,16.84,1
477,0.000186,0.00018,-6e-06,-2.98,1
478,0.00021,0.000224,1.4e-05,6.77,1
479,0.000493,0.00052,2.7e-05,5.54,1
480,0.000265,0.000261,-4e-06,-1.46,1
481,0.000286,0.000288,2e-06,0.85,1
482,0.000136,0.000135,-0.0,-0.37,1
483,0.000249,0.000255,6e-06,2.29,1
484,0.000233,0.000252,1.9e-05,7.94,1
485,0.000231,0.000236,5e-06,2.24,1
486,0.0003,0.000305,5e-06,1.8,1
487,0.000471,0.000451,-2e-05,-4.26,1
488,0.000231,0.000223,-8e-06,-3.48,1
489,0.000341,0.000355,1.3e-05,3.88,1
490,0.000222,0.000227,6e-06,2.55,1
491,0.000277,0.00027,-7e-06,-2.59,1
492,0.000178,0.000172,-6e-06,-3.36,1
493,0.000228,0.000251,2.3e-05,10.21,1
494,0.000314,0.00031,-4e-06,-1.28,1
495,0.000371,0.000346,-2.5e-05,-6.73,1
496,0.000147,0.000141,-6e-06,-4.37,1
497,0.000305,0.000321,1.6e-05,5.12,1
498,0.000237,0.000245,8e-06,3.38,1
499,0.000246,0.000268,2.2e-05,8.91,1
500,0.000174,0.000165,-1e-05,-5.65,1
501,0.000189,0.000203,1.4e-05,7.49,1
502,0.000283,0.00028,-3e-06,-1.02,1
503,0.000239,0.000229,-1e-05,-4.06,1
504,0.000178,0.000171,-7e-06,-4.09,1
505,0.000291,0.000324,3.3e-05,11.28,1
506,0.000257,0.000258,1e-06,0.47,1
507,0.000243,0.000233,-1.1e-05,-4.52,1
508,0.000193,0.000223,3e-05,15.54,1
509,0.000189,0.000202,1.3e-05,7.16,1
510,0.0003,0.000306,6e-06,1.85,1
511,0.000239,0.00023,-9e-06,-3.62,1
512,0.000178,0.000171,-7e-06,-3.98,1
513,0.000286,0.00029,4e-06,1.45,1
514,0.000237,0.000244,7e-06,2.98,1
515,0.000243,0.000234,-9e-06,-3.88,1
516,0.000282,0.00031,2.9e-05,10.19,1
517,0.000269,0.00026,-9e-06,-3.21,1
518,0.00021,0.000223,1.4e-05,6.5,1
519,0.000239,0.00023,-8e-06,-3.47,1
520,0.000178,0.00017,-8e-06,-4.66,1
521,0.000156,0.000181,2.5e-05,15.93,1
522,0.000212,0.000222,1e-05,4.94,1
523,0.000249,0.000255,6e-06,2.41,1
524,0.000233,0.00025,1.7e-05,7.2,1
525,0.000269,0.000262,-7e-06,-2.44,1
526,0.000272,0.000284,1.1e-05,4.22,1
527,0.00037,0.000372,2e-06,0.45,1
528,0.000265,0.000262,-3e-06,-1.04,1
529,0.000368,0.000373,5e-06,1.39,1
530,0.000213,0.0002,-1.3e-05,-6.22,1
531,0.000327,0.000339,1.2e-05,3.64,1
532,0.000174,0.000166,-9e-06,-4.92,1
533,0.000259,0.000275,1.6e-05,6.12,1
534,0.000283,0.000281,-2e-06,-0.76,1
535,0.000502,0.000509,7e-06,1.43,1
536,0.000178,0.000171,-8e-06,-4.28,1
537,0.000305,0.000321,1.6e-05,5.19,1
538,0.000212,0.000222,1e-05,4.75,1
539,0.000246,0.000268,2.1e-05,8.71,1
540,0.000203,0.000199,-3e-06,-1.64,1
541,0.000282,0.000288,5e-06,1.78,1
542,0.000314,0.000311,-3e-06,-0.97,1
543,0.00035,0.000364,1.4e-05,3.95,1
544,0.000178,0.000171,-7e-06,-3.9,1
545,0.000368,0.000372,5e-06,1.28,1
546,0.000212,0.000222,1e-05,4.74,1
547,0.000249,0.000255,6e-06,2.52,1
548,0.000178,0.000172,-6e-06,-3.23,1
549,0.000283,0.000288,5e-06,1.82,1
550,0.000283,0.000281,-2e-06,-0.55,1
551,0.00035,0.000365,1.5e-05,4.19,1
552,0.000265,0.000266,1e-06,0.46,1
553,0.000357,0.00034,-1.7e-05,-4.81,1
554,0.000289,0.000302,1.3e-05,4.35,1
555,0.000243,0.000242,-1e-06,-0.6,1
556,0.000188,0.000192,4e-06,2.35,1
557,0.000231,0.000236,5e-06,2.09,1
558,0.000209,0.000222,1.3e-05,6.13,1
559,0.000362,0.000369,8e-06,2.1,1
560,0.000178,0.00017,-8e-06,-4.36,1
561,0.000156,0.000178,2.2e-05,14.38,1
562,0.000149,0.000151,2e-06,1.44,1
563,0.000357,0.000357,0.0,0.04,1
564,0.000203,0.000201,-2e-06,-0.9,1
565,0.000158,0.000157,-1e-06,-0.36,1
566,0.0003,0.000306,6e-06,2.02,1
567,0.000484,0.000465,-1.9e-05,-3.86,1
568,0.000178,0.00017,-8e-06,-4.52,1
569,0.000291,0.000323,3.2e-05,10.91,1
570,0.000289,0.000302,1.3e-05,4.39,1
571,0.000327,0.000338,1.1e-05,3.51,1
572,0.000234,0.000248,1.4e-05,6.16,1
573,0.000269,0.000265,-4e-06,-1.4,1
574,0.00016,0.00016,0.0,0.1,1
575,0.000471,0.000466,-6e-06,-1.2,1
576,0.000147,0.000142,-6e-06,-3.97,1
577,0.000231,0.000241,1e-05,4.46,1
578,0.000149,0.000151,2e-06,1.27,1
579,0.000298,0.000265,-3.3e-05,-11.22,1
580,0.000141,0.000134,-8e-06,-5.51,1
581,0.000259,0.000274,1.5e-05,5.8,1
582,0.000286,0.000285,-1e-06,-0.33,1
583,0.000493,0.000521,2.8e-05,5.69,1
584,0.000178,0.000173,-6e-06,-3.16,1
585,0.000231,0.000241,1.1e-05,4.56,1
586,0.000289,0.000303,1.4e-05,4.85,1
587,0.000246,0.000267,2.1e-05,8.33,1
588,0.000188,0.000193,5e-06,2.69,1
589,0.000259,0.000274,1.5e-05,5.79,1
590,0.0003,0.000306,6e-06,1.9,1
591,0.000471,0.000473,1e-06,0.26,1
592,0.00016,0.000175,1.5e-05,9.18,1
593,0.000368,0.000372,4e-06,1.18,1
594,0.000257,0.000257,-0.0,-0.15,1
595,0.000281,0.000284,3e-06,0.94,1
596,0.000141,0.000134,-8e-06,-5.4,1
597,0.000228,0.000249,2.2e-05,9.49,1
598,0.00016,0.00016,0.0,0.22,1
599,0.000493,0.000521,2.9e-05,5.8,1
600,0.00031,0.000289,-2e-05,-6.59,2
601,0.000339,0.000277,-6.3e-05,-18.55,2
602,0.000146,0.000123,-2.3e-05,-15.53,2
603,0.000242,0.000258,1.5e-05,6.34,2
604,0.00025,0.000226,-2.4e-05,-9.7,2
605,0.000247,0.000251,4e-06,1.79,2
606,0.000217,0.000189,-2.8e-05,-13.06,2
607,0.000412,0.000404,-8e-06,-2.02,2
608,0.00024,0.000301,6.1e-05,25.47,2
609,0.000114,0.000137,2.3e-05,19.78,2
610,0.000263,0.000235,-2.8e-05,-10.51,2
611,0.000302,0.000324,2.3e-05,7.55,2
612,0.000148,0.000115,-3.3e-05,-22.38,2
613,0.000299,0.000347,4.7e-05,15.83,2
614,0.000273,0.000244,-2.9e-05,-10.67,2
615,0.000412,0.000414,1e-06,0.29,2
616,0.000227,0.000227,-0.0,-0.12,2
617,0.000124,0.000169,4.5e-05,36.3,2
618,0.000263,0.00024,-2.3e-05,-8.71,2
619,0.000345,0.000303,-4.2e-05,-12.09,2
620,0.000156,0.000151,-4e-06,-2.8,2
621,0.000241,0.00023,-1.2e-05,-4.77,2
622,0.000179,0.000191,1.2e-05,6.63,2
623,0.000412,0.000424,1.2e-05,2.91,2
624,0.000231,0.000227,-4e-06,-1.55,2
625,0.000249,0.000258,9e-06,3.53,2
626,0.000188,0.000232,4.4e-05,23.38,2
627,0.000345,0.000317,-2.8e-05,-8.24,2
628,0.000369,0.000365,-3e-06,-0.89,2
629,0.000156,0.000143,-1.4e-05,-8.77,2
630,0.000385,0.00036,-2.5e-05,-6.61,2
631,0.000321,0.000294,-2.7e-05,-8.34,2
632,0.000132,0.000173,4.1e-05,30.7,2
633,0.000124,0.000142,1.8e-05,14.32,2
634,0.000189,0.000175,-1.3e-05,-6.95,2
635,0.00018,0.000197,1.6e-05,9.06,2
636,0.000264,0.000227,-3.6e-05,-13.73,2
637,0.000247,0.000239,-8e-06,-3.07,2
638,0.000385,0.000372,-1.3e-05,-3.31,2
639,0.000382,0.000351,-3.1e-05,-8.18,2
640,0.000231,0.000225,-6e-06,-2.43,2
641,0.000376,0.000348,-2.8e-05,-7.46,2
642,0.000212,0.000264,5.2e-05,24.62,2
643,0.000154,0.000135,-1.9e-05,-12.46,2
644,0.00015,0.000141,-9e-06,-6.17,2
645,0.000187,0.000179,-8e-06,-4.19,2
646,0.000273,0.000274,0.0,0.13,2
647,0.000317,0.000229,-8.8e-05,-27.74,2
648,0.000214,0.000237,2.3e-05,10.62,2
649,0.000278,0.000278,-0.0,-0.03,2
650,0.000215,0.000249,3.4e-05,15.87,2
651,0.00018,0.00019,1e-05,5.3,2
652,0.000148,0.00012,-2.8e-05,-19.04,2
653,0.000265,0.000306,4.1e-05,15.47,2
654,0.000324,0.000326,2e-06,0.6,2
655,0.000225,0.000254,2.9e-05,12.93,2
656,0.000385,0.000282,-0.000102,-26.57,2
657,0.000249,0.000257,7e-06,2.92,2
658,0.000263,0.00024,-2.2e-05,-8.55,2
659,0.000242,0.000255,1.2e-05,5.0,2
660,0.000156,0.000153,-3e-06,-1.97,2
661,0.000237,0.000248,1.1e-05,4.56,2
662,0.000217,0.000196,-2.1e-05,-9.87,2
663,0.000302,0.000288,-1.4e-05,-4.79,2
664,0.000261,0.000254,-7e-06,-2.66,2
665,0.000259,0.000276,1.7e-05,6.59,2
666,0.000189,0.000163,-2.5e-05,-13.49,2
667,0.000154,0.000138,-1.6e-05,-10.41,2
668,0.00021,0.000217,7e-06,3.52,2
669,0.000199,0.000222,2.3e-05,11.3,2
670,0.000201,0.000223,2.2e-05,10.93,2
671,0.000403,0.00034,-6.2e-05,-15.45,2
672,0.000227,0.000236,9e-06,3.84,2
673,0.000263,0.00024,-2.3e-05,-8.81,2
674,0.00023,0.000267,3.7e-05,16.2,2
675,0.000326,0.000362,3.7e-05,11.24,2
676,0.00025,0.000219,-3.2e-05,-12.59,2
677,0.000187,0.000174,-1.4e-05,-7.24,2
678,0.000215,0.000218,2e-06,1.12,2
679,0.000316,0.000302,-1.4e-05,-4.36,2
680,0.00026,0.000242,-1.8e-05,-6.89,2
681,0.000272,0.000242,-3e-05,-11.16,2
682,0.000251,0.000271,2e-05,8.11,2
683,0.000302,0.000316,1.4e-05,4.75,2
684,0.00015,0.000136,-1.4e-05,-9.26,2
685,0.000199,0.000214,1.4e-05,7.21,2
686,0.000273,0.000287,1.4e-05,5.07,2
687,0.000289,0.000301,1.3e-05,4.48,2
688,0.000143,0.000113,-3e-05,-21.07,2
689,0.000278,0.000296,1.8e-05,6.39,2
690,0.000199,0.000193,-5e-06,-2.69,2
691,0.000249,0.000238,-1.1e-05,-4.31,2
692,0.000279,0.000291,1.2e-05,4.27,2
693,0.000156,0.000148,-9e-06,-5.44,2
694,0.000273,0.000288,1.4e-05,5.21,2
695,0.000317,0.000257,-6e-05,-18.97,2
696,0.000143,0.000118,-2.6e-05,-17.88,2
697,0.000205,0.000286,8.1e-05,39.48,2
698,0.000199,0.00019,-8e-06,-4.2,2
699,0.000242,0.000254,1.1e-05,4.57,2
700,0.000264,0.00025,-1.3e-05,-5.02,2
701,0.000211,0.000176,-3.5e-05,-16.63,2
702,0.000215,0.000215,-0.0,-0.23,2
703,0.000403,0.000354,-4.8e-05,-12.02,2
704,0.000217,0.000208,-9e-06,-4.18,2
705,0.000211,0.000226,1.5e-05,7.17,2
706,0.000263,0.000246,-1.7e-05,-6.29,2
707,0.000327,0.0003,-2.7e-05,-8.11,2
708,0.000279,0.000292,1.3e-05,4.67,2
709,0.000241,0.000225,-1.6e-05,-6.71,2
710,0.000299,0.000327,2.8e-05,9.43,2
711,0.000316,0.000303,-1.3e-05,-4.03,2
712,0.000227,0.00023,3e-06,1.2,2
713,0.000339,0.000311,-2.8e-05,-8.26,2
714,0.000146,0.000136,-9e-06,-6.44,2
715,0.000337,0.00033,-6e-06,-1.93,2
716,0.000148,0.000128,-2e-05,-13.28,2
717,0.000201,0.00022,1.9e-05,9.38,2
718,0.000217,0.000208,-9e-06,-4.21,2
719,0.000321,0.000295,-2.5e-05,-7.93,2
720,0.000214,0.000218,4e-06,1.74,2
721,0.000211,0.000221,1e-05,4.81,2
722,0.000263,0.000268,5e-06,1.92,2
723,0.000326,0.000353,2.7e-05,8.37,2
724,0.000148,0.000131,-1.7e-05,-11.81,2
725,0.000245,0.000298,5.3e-05,21.67,2
726,0.000273,0.000291,1.8e-05,6.42,2
727,0.000225,0.000242,1.7e-05,7.63,2
728,0.000262,0.000279,1.7e-05,6.51,2
729,0.000211,0.000217,6e-06,3.05,2
730,0.000212,0.00024,2.8e-05,13.05,2
731,0.000241,0.000235,-6e-06,-2.47,2
732,0.000279,0.000293,1.5e-05,5.25,2
733,0.000241,0.00023,-1.1e-05,-4.55,2
734,0.000228,0.000233,4e-06,1.97,2
735,0.000225,0.000237,1.1e-05,4.99,2
736,0.00024,0.000252,1.2e-05,5.13,2
737,0.000339,0.000318,-2.2e-05,-6.44,2
738,0.00013,0.000145,1.4e-05,11.14,2
739,0.000241,0.000232,-9e-06,-3.69,2
740,0.00015,0.000134,-1.5e-05,-10.28,2
741,0.000241,0.000241,-1e-06,-0.31,2
742,0.000372,0.000332,-4e-05,-10.72,2
743,0.000403,0.00037,-3.3e-05,-8.15,2
744,0.00024,0.000251,1.2e-05,4.89,2
745,0.000249,0.000249,-0.0,-0.1,2
746,0.000146,0.000138,-8e-06,-5.28,2
747,0.000344,0.000301,-4.3e-05,-12.38,2
748,0.00025,0.00023,-2e-05,-8.17,2
749,0.000211,0.000182,-2.9e-05,-13.79,2
750,0.000217,0.000214,-4e-06,-1.66,2
751,0.000184,0.000171,-1.4e-05,-7.52,2
752,0.00031,0.000302,-8e-06,-2.51,2
753,0.000249,0.000251,1e-06,0.51,2
754,0.000188,0.000202,1.4e-05,7.53,2
755,0.000302,0.0003,-1e-06,-0.4,2
756,0.000156,0.000153,-2e-06,-1.54,2
757,0.000211,0.000187,-2.4e-05,-11.31,2
758,0.000372,0.000359,-1.3e-05,-3.43,2
759,0.000316,0.000311,-5e-06,-1.53,2
760,0.000217,0.000204,-1.3e-05,-5.77,2
761,0.000114,0.000146,3.2e-05,27.69,2
762,0.000251,0.00027,2e-05,7.86,2
763,0.00018,0.000177,-4e-06,-2.06,2
764,0.000281,0.000278,-4e-06,-1.25,2
765,0.000265,0.000265,0.0,0.17,2
766,0.000324,0.00033,6e-06,1.79,2
767,0.000321,0.000304,-1.6e-05,-5.1,2
768,0.00026,0.00025,-1e-05,-3.97,2
769,0.000205,0.000252,4.7e-05,22.83,2
770,0.000199,0.000192,-7e-06,-3.46,2
771,0.000242,0.000249,6e-06,2.67,2
772,0.00024,0.000233,-6e-06,-2.59,2
773,0.000265,0.00027,5e-06,1.88,2
774,0.000217,0.000214,-3e-06,-1.6,2
775,0.000382,0.000358,-2.4e-05,-6.23,2
776,0.000217,0.000202,-1.4e-05,-6.69,2
777,0.000124,0.000129,5e-06,3.68,2
778,0.000146,0.000137,-9e-06,-6.22,2
779,0.000242,0.000248,6e-06,2.43,2
780,0.00025,0.000233,-1.7e-05,-6.84,2
781,0.000245,0.000298,5.3e-05,21.45,2
782,0.000217,0.000216,-1e-06,-0.6,2
783,0.000317,0.000278,-3.9e-05,-12.21,2
784,0.000385,0.000331,-5.4e-05,-14.0,2
785,0.000114,0.000139,2.4e-05,21.3,2
786,0.000263,0.000269,7e-06,2.48,2
787,0.000324,0.000283,-4.1e-05,-12.62,2
788,0.000264,0.000251,-1.3e-05,-4.93,2
789,0.000299,0.000312,1.3e-05,4.27,2
790,0.000201,0.000209,8e-06,3.96,2
791,0.000403,0.000377,-2.6e-05,-6.45,2
792,0.00031,0.000307,-3e-06,-0.86,2
793,0.000249,0.00025,1e-06,0.21,2
794,0.000263,0.000251,-1.2e-05,-4.46,2
795,0.000242,0.00025,7e-06,2.96,2
796,0.000156,0.000151,-5e-06,-3.1,2
797,0.000241,0.000237,-4e-06,-1.82,2
798,0.000385,0.000384,-2e-06,-0.44,2
799,0.000321,0.000308,-1.2e-05,-3.79,2
800,0.000217,0.000202,-1.5e-05,-6.76,2
801,0.000249,0.00025,1e-06,0.41,2
802,0.00013,0.000138,8e-06,6.09,2
803,0.00018,0.000173,-7e-06,-4.09,2
804,0.000156,0.00015,-5e-06,-3.51,2
805,0.000201,0.000216,1.5e-05,7.45,2
806,0.000302,0.000296,-6e-06,-1.89,2
807,0.000184,0.000175,-9e-06,-4.94,2
808,0.00031,0.00031,0.0,0.06,2
809,0.000272,0.000259,-1.3e-05,-4.9,2
810,0.000188,0.000199,1.1e-05,6.11,2
811,0.000324,0.000303,-2.1e-05,-6.53,2
812,0.00024,0.00024,1e-06,0.27,2
813,0.000237,0.00024,2e-06,1.01,2
814,0.000372,0.000364,-8e-06,-2.1,2
815,0.000403,0.000384,-1.9e-05,-4.63,2
816,0.000262,0.000249,-1.3e-05,-5.01,2
817,0.000278,0.000302,2.4e-05,8.57,2
818,0.00013,0.000135,5e-06,3.99,2
819,0.00018,0.000171,-9e-06,-5.1,2
820,0.000269,0.000243,-2.6e-05,-9.48,2
821,0.000211,0.000191,-2e-05,-9.39,2
822,0.000201,0.000206,5e-06,2.36,2
823,0.000316,0.000315,-2e-06,-0.49,2
824,0.000231,0.000231,0.0,0.14,2
825,0.000376,0.000353,-2.2e-05,-5.95,2
826,0.000212,0.000225,1.3e-05,6.32,2
827,0.000324,0.000318,-6e-06,-1.73,2
828,0.000228,0.00022,-9e-06,-3.79,2
829,0.000241,0.000245,3e-06,1.38,2
830,0.000302,0.000298,-5e-06,-1.51,2
831,0.000382,0.000368,-1.4e-05,-3.72,2
832,0.000143,0.00012,-2.4e-05,-16.42,2
833,0.000259,0.000269,1e-05,3.69,2
834,0.000189,0.000168,-2e-05,-10.69,2
835,0.000345,0.000301,-4.4e-05,-12.72,2
836,0.000264,0.000256,-8e-06,-3.04,2
837,0.000265,0.000272,7e-06,2.76,2
838,0.000324,0.000322,-2e-06,-0.59,2
839,0.000316,0.000316,-0.0,-0.08,2
840,0.00026,0.000255,-6e-06,-2.16,2
841,0.000211,0.000217,6e-06,2.74,2
842,0.000212,0.000223,1.1e-05,5.28,2
843,0.000337,0.000334,-2e-06,-0.71,2
844,0.000228,0.000218,-1e-05,-4.4,2
845,0.000265,0.000273,8e-06,2.96,2
846,0.000372,0.000368,-4e-06,-1.07,2
847,0.000593,0.000422,-0.000171,-28.88,2
848,0.000231,0.000233,2e-06,0.94,2
849,0.000272,0.000265,-7e-06,-2.73,2
850,0.000251,0.000266,1.5e-05,6.15,2
851,0.000344,0.000321,-2.3e-05,-6.69,2
852,0.000148,0.000133,-1.5e-05,-10.37,2
853,0.000211,0.000194,-1.7e-05,-7.88,2
854,0.000217,0.000217,-1e-06,-0.32,2
855,0.000289,0.000294,6e-06,1.96,2
856,0.00024,0.000249,1e-05,4.01,2
857,0.000278,0.000305,2.7e-05,9.66,2
858,0.00013,0.000134,3e-06,2.68,2
859,0.000249,0.000239,-1e-05,-3.93,2
860,0.00024,0.000242,2e-06,0.89,2
861,0.000241,0.000243,1e-06,0.55,2
862,0.000299,0.000327,2.8e-05,9.45,2
863,0.000225,0.000234,8e-06,3.73,2
864,0.000262,0.000248,-1.4e-05,-5.16,2
865,0.000259,0.000266,6e-06,2.49,2
866,0.00013,0.000132,2e-06,1.67,2
867,0.000324,0.00033,6e-06,1.98,2
868,0.000279,0.000298,1.9e-05,6.76,2
869,0.000199,0.000205,6e-06,2.9,2
870,0.000228,0.000235,7e-06,2.95,2
871,0.000321,0.000307,-1.3e-05,-4.19,2
872,0.000385,0.000355,-3e-05,-7.79,2
873,0.000211,0.000215,4e-06,1.93,2
874,0.000263,0.00025,-1.2e-05,-4.7,2
875,0.000337,0.000336,-1e-06,-0.28,2
876,0.00025,0.000233,-1.8e-05,-7.0,2
877,0.000245,0.000293,4.8e-05,19.53,2
878,0.000324,0.000328,3e-06,1.07,2
879,0.000316,0.000315,-1e-06,-0.26,2
880,0.000143,0.000123,-2.1e-05,-14.39,2
881,0.000278,0.000304,2.6e-05,9.2,2
882,0.000189,0.000172,-1.6e-05,-8.73,2
883,0.000327,0.0003,-2.7e-05,-8.12,2
884,0.000228,0.000219,-9e-06,-4.04,2
885,0.000237,0.000242,4e-06,1.76,2
886,0.000299,0.000323,2.5e-05,8.26,2
887,0.000289,0.000293,5e-06,1.68,2
888,0.000261,0.000257,-4e-06,-1.65,2
889,0.000205,0.000236,3.1e-05,15.14,2
890,0.000146,0.000136,-9e-06,-6.33,2
891,0.000249,0.000242,-6e-06,-2.59,2
892,0.000156,0.000151,-5e-06,-3.21,2
893,0.000245,0.00029,4.5e-05,18.49,2
894,0.000372,0.000375,3e-06,0.86,2
895,0.000225,0.000231,6e-06,2.53,2
896,0.000227,0.000227,-0.0,-0.12,2
897,0.000272,0.000271,-1e-06,-0.35,2
898,0.000263,0.000253,-1e-05,-3.76,2
899,0.000345,0.000313,-3.2e-05,-9.36,2
900,0.000269,0.000252,-1.7e-05,-6.42,2
901,0.000241,0.000248,6e-06,2.57,2
902,0.000215,0.00021,-5e-06,-2.36,2
903,0.000302,0.000309,7e-06,2.25,2
904,0.000217,0.000204,-1.3e-05,-5.96,2
905,0.000211,0.000214,3e-06,1.37,2
906,0.000199,0.000203,4e-06,2.11,2
907,0.000345,0.000319,-2.6e-05,-7.61,2
908,0.000148,0.000135,-1.3e-05,-9.05,2
909,0.000241,0.000248,6e-06,2.59,2
910,0.000215,0.000209,-6e-06,-2.74,2
911,0.000593,0.000476,-0.000117,-19.75,2
912,0.00031,0.00031,1e-06,0.27,2
913,0.000124,0.000125,1e-06,0.71,2
914,0.000265,0.000232,-3.3e-05,-12.43,2
915,0.000154,0.000144,-1e-05,-6.73,2
916,0.00015,0.000133,-1.7e-05,-11.56,2
917,0.000156,0.000154,-3e-06,-1.75,2
918,0.000179,0.000187,8e-06,4.33,2
919,0.000302,0.00031,8e-06,2.57,2
920,0.000262,0.000251,-1.1e-05,-4.33,2
921,0.000309,0.000291,-1.8e-05,-5.85,2
922,0.000199,0.000204,5e-06,2.71,2
923,0.00018,0.000169,-1.1e-05,-6.33,2
924,0.00021,0.000202,-8e-06,-3.66,2
925,0.000201,0.000212,1.1e-05,5.37,2
926,0.000228,0.000236,8e-06,3.62,2
927,0.000317,0.000287,-3e-05,-9.51,2
928,0.000227,0.000227,-0.0,-0.07,2
929,0.000339,0.000327,-1.2e-05,-3.63,2
930,0.000215,0.000218,4e-06,1.64,2
931,0.000242,0.000248,5e-06,2.09,2
932,0.00015,0.000133,-1.7e-05,-11.31,2
933,0.000241,0.000248,7e-06,2.73,2
934,0.000385,0.000391,6e-06,1.5,2
935,0.000289,0.000295,7e-06,2.31,2
936,0.000385,0.000367,-1.8e-05,-4.59,2
937,0.000124,0.000125,1e-06,0.84,2
938,0.000265,0.000241,-2.5e-05,-9.3,2
939,0.000241,0.000234,-6e-06,-2.69,2
940,0.000156,0.000151,-4e-06,-2.84,2
941,0.000299,0.000307,7e-06,2.47,2
942,0.00023,0.000233,3e-06,1.32,2
943,0.000407,0.000355,-5.2e-05,-12.86,2
944,0.000231,0.000228,-3e-06,-1.13,2
945,0.000263,0.000257,-6e-06,-2.38,2
946,0.000251,0.000262,1.1e-05,4.48,2
947,0.00018,0.000169,-1.2e-05,-6.38,2
948,0.000228,0.000221,-7e-06,-3.22,2
949,0.000247,0.000236,-1.1e-05,-4.35,2
950,0.00023,0.000233,3e-06,1.43,2
951,0.000184,0.000177,-7e-06,-3.89,2
952,0.00026,0.000259,-1e-06,-0.45,2
953,0.000249,0.000255,5e-06,2.2,2
954,0.000212,0.000219,7e-06,3.5,2
955,0.00018,0.000169,-1.2e-05,-6.46,2
956,0.000369,0.000355,-1.4e-05,-3.67,2
957,0.000156,0.000153,-3e-06,-1.91,2
958,0.000217,0.000221,4e-06,1.79,2
959,0.000407,0.000376,-3.1e-05,-7.63,2
960,0.000214,0.000216,1e-06,0.54,2
961,0.000124,0.000125,0.0,0.35,2
962,0.000212,0.000219,7e-06,3.42,2
963,0.000154,0.000145,-9e-06,-5.85,2
964,0.00024,0.000245,6e-06,2.38,2
965,0.000199,0.000201,2e-06,0.92,2
966,0.000179,0.000185,6e-06,3.26,2
967,0.000412,0.000418,6e-06,1.36,2
968,0.000132,0.000139,6e-06,4.88,2
969,0.000272,0.000273,1e-06,0.54,2
970,0.000146,0.000138,-8e-06,-5.51,2
971,0.000337,0.00034,4e-06,1.09,2
972,0.00021,0.000203,-6e-06,-2.89,2
973,0.000211,0.000199,-1.2e-05,-5.52,2
974,0.000372,0.000379,7e-06,1.81,2
975,0.000289,0.000298,9e-06,3.13,2
976,0.000262,0.000254,-8e-06,-2.97,2
977,0.000259,0.000263,4e-06,1.46,2
978,0.000212,0.000219,7e-06,3.23,2
979,0.000249,0.000246,-3e-06,-1.08,2
980,0.00015,0.000134,-1.6e-05,-10.91,2
981,0.000156,0.000153,-4e-06,-2.35,2
982,0.000302,0.000289,-1.3e-05,-4.31,2
983,0.000302,0.000312,1e-05,3.33,2
984,0.000261,0.000257,-4e-06,-1.45,2
985,0.000124,0.000125,1e-06,0.52,2
986,0.000251,0.00026,9e-06,3.5,2
987,0.000327,0.000305,-2.2e-05,-6.75,2
988,0.000281,0.000276,-5e-06,-1.75,2
989,0.000245,0.000286,4.1e-05,16.81,2
990,0.000201,0.000205,4e-06,1.86,2
991,0.000321,0.000312,-8e-06,-2.64,2
992,0.000143,0.000124,-1.9e-05,-13.23,2
993,0.000259,0.000263,3e-06,1.29,2
994,0.000263,0.000254,-8e-06,-3.2,2
995,0.000242,0.000248,5e-06,2.18,2
996,0.000264,0.000258,-5e-06,-1.99,2
997,0.000211,0.0002,-1.1e-05,-5.08,2
998,0.000201,0.000205,3e-06,1.67,2
999,0.000407,0.000389,-1.8e-05,-4.44,2
1000,0.000261,0.000256,-5e-06,-1.75,2
1001,0.000309,0.000304,-5e-06,-1.77,2
1002,0.000215,0.000223,8e-06,3.65,2
1003,0.000326,0.000354,2.8e-05,8.5,2
1004,0.000148,0.000136,-1.2e-05,-8.05,2
1005,0.000299,0.000302,3e-06,1.03,2
1006,0.00023,0.000233,3e-06,1.31,2
1007,0.000316,0.000315,-1e-06,-0.28,2
1008,0.000262,0.000256,-6e-06,-2.1,2
1009,0.000249,0.000255,6e-06,2.38,2
1010,0.000188,0.000197,9e-06,4.68,2
1011,0.000241,0.000238,-3e-06,-1.23,2
1012,0.000228,0.00022,-8e-06,-3.52,2
1013,0.000265,0.000272,8e-06,2.92,2
1014,0.000299,0.000319,2e-05,6.73,2
1015,0.000403,0.000386,-1.7e-05,-4.26,2
1016,0.000231,0.000228,-2e-06,-1.07,2
1017,0.000339,0.000336,-4e-06,-1.16,2
1018,0.00023,0.00025,2e-05,8.68,2
1019,0.000242,0.000248,6e-06,2.35,2
1020,0.00024,0.000247,7e-06,2.87,2
1021,0.000237,0.000245,7e-06,3.08,2
1022,0.000201,0.000204,2e-06,1.14,2
1023,0.000316,0.000316,-0.0,-0.08,2
1024,0.000143,0.000126,-1.7e-05,-12.18,2
1025,0.000376,0.00035,-2.5e-05,-6.75,2
1026,0.000265,0.000246,-2e-05,-7.42,2
1027,0.000241,0.000239,-2e-06,-0.73,2
1028,0.00015,0.000134,-1.6e-05,-10.6,2
1029,0.000247,0.000238,-8e-06,-3.36,2
1030,0.000273,0.000301,2.7e-05,9.93,2
1031,0.000321,0.000315,-5e-06,-1.61,2
1032,0.000214,0.000217,2e-06,1.0,2
1033,0.000124,0.000125,1e-06,0.51,2
1034,0.00023,0.000245,1.5e-05,6.63,2
1035,0.000344,0.000341,-3e-06,-0.8,2
1036,0.000156,0.000154,-2e-06,-1.4,2
1037,0.000199,0.000199,-1e-06,-0.33,2
1038,0.000217,0.000223,5e-06,2.43,2
1039,0.000412,0.000421,8e-06,2.02,2
1040,0.00031,0.000312,3e-06,0.9,2
1041,0.000263,0.000263,0.0,0.11,2
1042,0.000199,0.000207,8e-06,4.27,2
1043,0.00018,0.000168,-1.2e-05,-6.82,2
1044,0.000228,0.00022,-9e-06,-3.78,2
1045,0.000241,0.000243,1e-06,0.56,2
1046,0.000324,0.000331,7e-06,2.13,2
1047,0.000412,0.000421,9e-06,2.15,2
1048,0.000231,0.00023,-0.0,-0.21,2
1049,0.000272,0.000275,3e-06,0.92,2
1050,0.000199,0.000207,8e-06,4.21,2
1051,0.000242,0.000248,5e-06,2.24,2
1052,0.000269,0.000259,-1e-05,-3.76,2
1053,0.000237,0.000246,8e-06,3.45,2
1054,0.000215,0.000212,-3e-06,-1.25,2
1055,0.000321,0.000317,-3e-06,-1.04,2
1056,0.00026,0.000261,0.0,0.05,2
1057,0.000124,0.000125,1e-06,0.41,2
1058,0.000212,0.000217,5e-06,2.55,2
1059,0.000337,0.000343,6e-06,1.77,2
1060,0.000281,0.000278,-3e-06,-1.21,2
1061,0.000265,0.000274,9e-06,3.42,2
1062,0.000299,0.000318,1.9e-05,6.53,2
1063,0.000317,0.000293,-2.4e-05,-7.48,2
1064,0.000217,0.000202,-1.5e-05,-6.82,2
1065,0.000114,0.000136,2.2e-05,19.49,2
1066,0.000199,0.000207,8e-06,4.23,2
1067,0.000154,0.000146,-8e-06,-5.21,2
1068,0.00025,0.000236,-1.5e-05,-5.91,2
1069,0.000237,0.000247,1e-05,4.09,2
1070,0.000201,0.000203,2e-06,0.99,2
1071,0.000407,0.000398,-9e-06,-2.21,2
1072,0.000227,0.000228,1e-06,0.32,2
1073,0.000259,0.000263,4e-06,1.48,2
1074,0.000263,0.000256,-7e-06,-2.62,2
1075,0.000302,0.000292,-1e-05,-3.16,2
1076,0.000279,0.000297,1.8e-05,6.62,2
1077,0.000265,0.000274,9e-06,3.47,2
1078,0.000302,0.000287,-1.5e-05,-5.02,2
1079,0.000289,0.000299,1e-05,3.54,2
1080,0.000231,0.000232,1e-06,0.56,2
1081,0.000114,0.000133,1.9e-05,16.28,2
1082,0.000251,0.00026,9e-06,3.74,2
1083,0.000302,0.000293,-8e-06,-2.7,2
1084,0.000156,0.000153,-3e-06,-1.83,2
1085,0.000247,0.000239,-7e-06,-2.91,2
1086,0.000217,0.000224,7e-06,3.09,2
1087,0.000289,0.000299,1.1e-05,3.71,2
1088,0.000214,0.000217,2e-06,1.11,2
1089,0.000263,0.000267,4e-06,1.63,2
1090,0.000215,0.000224,9e-06,4.3,2
1091,0.000327,0.000311,-1.6e-05,-4.81,2
1092,0.000148,0.000137,-1.1e-05,-7.43,2
1093,0.000241,0.000246,5e-06,1.91,2
1094,0.000273,0.000301,2.7e-05,9.89,2
1095,0.000316,0.000319,2e-06,0.78,2
1096,0.000217,0.000204,-1.2e-05,-5.76,2
1097,0.000249,0.000255,6e-06,2.4,2
1098,0.000263,0.000258,-5e-06,-1.87,2
1099,0.000249,0.000247,-1e-06,-0.51,2
1100,0.00025,0.000238,-1.2e-05,-4.73,2
1101,0.000187,0.000169,-1.8e-05,-9.69,2
1102,0.000299,0.000316,1.7e-05,5.79,2
1103,0.000184,0.00018,-5e-06,-2.6,2
1104,0.000132,0.000138,6e-06,4.25,2
1105,0.000114,0.00013,1.6e-05,13.65,2
1106,0.000251,0.000259,8e-06,3.32,2
1107,0.000241,0.000241,0.0,0.06,2
1108,0.000281,0.000279,-2e-06,-0.59,2
1109,0.000299,0.000301,2e-06,0.72,2
1110,0.000228,0.000237,8e-06,3.67,2
1111,0.000316,0.000319,3e-06,0.86,2
1112,0.000214,0.000217,2e-06,1.11,2
1113,0.000259,0.000264,4e-06,1.73,2
1114,0.000189,0.000175,-1.3e-05,-7.0,2
1115,0.000324,0.000338,1.4e-05,4.23,2
1116,0.000148,0.000138,-1e-05,-6.87,2
1117,0.000201,0.000212,1.1e-05,5.65,2
1118,0.000217,0.000224,7e-06,3.02,2
1119,0.000407,0.000404,-3e-06,-0.66,2
1120,0.000385,0.000376,-8e-06,-2.19,2
1121,0.000249,0.000256,7e-06,2.61,2
1122,0.000215,0.000224,1e-05,4.45,2
1123,0.000241,0.000241,1e-06,0.34,2
1124,0.000156,0.000153,-3e-06,-1.76,2
1125,0.000299,0.000301,2e-06,0.54,2
1126,0.00023,0.000234,4e-06,1.71,2
1127,0.000302,0.000319,1.7e-05,5.52,2
1128,0.000214,0.000217,2e-06,0.99,2
1129,0.000272,0.000277,5e-06,1.78,2
1130,0.000189,0.000178,-1.1e-05,-5.76,2
1131,0.000248,0.000249,1e-06,0.31,2
1132,0.000281,0.00028,-1e-06,-0.41,2
1133,0.000187,0.00017,-1.7e-05,-8.96,2
1134,0.000299,0.000314,1.5e-05,5.08,2
1135,0.000317,0.000298,-1.9e-05,-6.14,2
1136,0.000261,0.000257,-4e-06,-1.59,2
1137,0.000278,0.000308,3e-05,10.66,2
1138,0.000265,0.000248,-1.8e-05,-6.6,2
1139,0.000344,0.000347,3e-06,1.01,2
1140,0.000228,0.00022,-8e-06,-3.7,2
1141,0.000156,0.000152,-4e-06,-2.41,2
1142,0.000217,0.000225,7e-06,3.44,2
1143,0.000321,0.00032,-0.0,-0.14,2
1144,0.000231,0.000235,4e-06,1.67,2
1145,0.000278,0.000306,2.8e-05,9.94,2
1146,0.000199,0.000206,8e-06,3.81,2
1147,0.000344,0.00035,7e-06,1.91,2
1148,0.000228,0.000221,-8e-06,-3.46,2
1149,0.000265,0.000274,9e-06,3.48,2
1150,0.000215,0.000214,-1e-06,-0.54,2
1151,0.000321,0.000321,1e-06,0.18,2
1152,0.000231,0.000236,5e-06,2.08,2
1153,0.000124,0.000125,1e-06,0.45,2
1154,0.000199,0.000206,8e-06,3.87,2
1155,0.000242,0.000248,6e-06,2.35,2
1156,0.000228,0.000221,-8e-06,-3.45,2
1157,0.000199,0.000199,-1e-06,-0.48,2
1158,0.000228,0.000236,8e-06,3.4,2
1159,0.000412,0.000422,9e-06,2.3,2
1160,0.000262,0.000261,-1e-06,-0.38,2
1161,0.000205,0.000223,1.8e-05,8.85,2
1162,0.000263,0.000259,-4e-06,-1.46,2
1163,0.000344,0.000353,9e-06,2.66,2
1164,0.000279,0.000297,1.8e-05,6.36,2
1165,0.000265,0.000275,1e-05,3.74,2
1166,0.000324,0.000332,7e-06,2.24,2
1167,0.000316,0.000318,2e-06,0.73,2
1168,0.000227,0.000228,1e-06,0.52,2
1169,0.000339,0.000337,-2e-06,-0.61,2
1170,0.000188,0.000193,6e-06,2.93,2
1171,0.00018,0.000168,-1.2e-05,-6.89,2
1172,0.00025,0.000242,-9e-06,-3.46,2
1173,0.000245,0.000282,3.7e-05,15.02,2
1174,0.000302,0.000286,-1.6e-05,-5.39,2
1175,0.000412,0.000422,1e-05,2.33,2
1176,0.000231,0.000237,6e-06,2.6,2
1177,0.000124,0.000125,0.0,0.35,2
1178,0.000215,0.000224,1e-05,4.46,2
1179,0.000242,0.000248,6e-06,2.36,2
1180,0.000228,0.000221,-7e-06,-3.16,2
1181,0.000237,0.000249,1.2e-05,5.0,2
1182,0.000385,0.000398,1.2e-05,3.22,2
1183,0.000225,0.000227,2e-06,0.98,2
1184,0.000231,0.000238,7e-06,3.07,2
1185,0.000263,0.000273,1e-05,3.71,2
1186,0.00013,0.000132,2e-06,1.17,2
1187,0.000241,0.000243,2e-06,0.88,2
1188,0.000269,0.000263,-6e-06,-2.29,2
1189,0.000156,0.000153,-3e-06,-2.06,2
1190,0.000217,0.000226,8e-06,3.9,2
1191,0.000289,0.000302,1.3e-05,4.51,2
1192,0.00024,0.000245,6e-06,2.3,2
1193,0.000309,0.000309,0.0,0.03,2
1194,0.000212,0.000217,5e-06,2.45,2
1195,0.000302,0.000296,-6e-06,-1.95,2
1196,0.00021,0.000204,-6e-06,-2.67,2
1197,0.000199,0.000198,-2e-06,-0.82,2
1198,0.000302,0.000287,-1.5e-05,-4.92,2
1199,0.000289,0.000301,1.3e-05,4.49,2
1200,0.000241,0.000279,3.8e-05,15.63,4
1201,0.000236,0.000199,-3.7e-05,-15.83,4
1202,0.000153,0.000185,3.3e-05,21.45,4
1203,0.000305,0.000338,3.3e-05,10.91,4
1204,0.000293,0.000285,-7e-06,-2.46,4
1205,0.000141,0.000184,4.3e-05,30.15,4
1206,0.000134,0.00015,1.7e-05,12.54,4
1207,0.00033,0.000254,-7.7e-05,-23.2,4
1208,0.00031,0.000332,2.2e-05,7.01,4
1209,0.000236,0.000218,-1.9e-05,-7.92,4
1210,9.2e-05,0.000135,4.3e-05,46.41,4
1211,0.000298,0.000376,7.7e-05,25.93,4
1212,0.00027,0.00016,-0.000109,-40.54,4
1213,0.000344,0.000312,-3.2e-05,-9.26,4
1214,0.000291,0.000249,-4.1e-05,-14.13,4
1215,0.000549,0.000415,-0.000134,-24.41,4
1216,0.000241,0.000267,2.5e-05,10.47,4
1217,0.0002,0.000207,7e-06,3.7,4
1218,0.000272,0.000298,2.6e-05,9.51,4
1219,0.000298,0.000347,4.9e-05,16.26,4
1220,0.000249,0.000251,2e-06,0.98,4
1221,9.4e-05,0.000103,1e-05,10.58,4
1222,0.000291,0.000279,-1.2e-05,-4.03,4
1223,0.00033,0.000309,-2.1e-05,-6.39,4
1224,0.000291,0.000297,6e-06,2.22,4
1225,0.000297,0.000322,2.5e-05,8.45,4
1226,0.000208,0.000229,2e-05,9.74,4
1227,0.0003,0.000263,-3.7e-05,-12.46,4
1228,9.2e-05,9.9e-05,7e-06,7.86,4
1229,0.000354,0.000256,-9.7e-05,-27.48,4
1230,0.000134,0.000136,2e-06,1.69,4
1231,0.000193,0.000262,6.9e-05,35.64,4
1232,0.000382,0.000364,-1.8e-05,-4.62,4
1233,0.000111,0.000122,1.1e-05,10.27,4
1234,0.000259,0.000217,-4.2e-05,-16.2,4
1235,0.000197,0.000218,2.1e-05,10.64,4
1236,9.2e-05,9.1e-05,-1e-06,-0.58,4
1237,0.000222,0.000217,-5e-06,-2.45,4
1238,0.000305,0.000212,-9.4e-05,-30.75,4
1239,0.000188,0.000178,-1e-05,-5.22,4
1240,0.000244,0.000205,-3.9e-05,-15.79,4
1241,0.000243,0.000309,6.6e-05,27.12,4
1242,0.000201,0.000201,-0.0,-0.07,4
1243,0.000259,0.000282,2.3e-05,8.77,4
1244,0.000249,0.000244,-4e-06,-1.76,4
1245,0.000264,0.000251,-1.3e-05,-5.09,4
1246,0.000282,0.000161,-0.000121,-42.8,4
1247,0.000352,0.000363,1.1e-05,3.18,4
1248,0.000388,0.000368,-2e-05,-5.2,4
1249,0.000263,0.000265,2e-06,0.88,4
1250,0.000324,0.000308,-1.6e-05,-5.04,4
1251,0.000274,0.000277,3e-06,1.15,4
1252,0.000293,0.000306,1.4e-05,4.63,4
1253,0.000365,0.000309,-5.6e-05,-15.31,4
1254,0.000315,0.000332,1.6e-05,5.21,4
1255,0.00033,0.000324,-6e-06,-1.91,4
1256,0.000285,0.000255,-3e-05,-10.7,4
1257,0.000111,0.000117,6e-06,5.46,4
1258,0.000311,0.000309,-2e-06,-0.76,4
1259,0.000335,0.000367,3.2e-05,9.57,4
1260,0.000357,0.0004,4.4e-05,12.2,4
1261,0.000354,0.000291,-6.3e-05,-17.72,4
1262,0.000312,0.000433,0.000121,38.64,4
1263,0.000352,0.000278,-7.5e-05,-21.18,4
1264,0.000409,0.000363,-4.6e-05,-11.28,4
1265,0.000243,0.000275,3.3e-05,13.42,4
1266,0.000201,0.000196,-5e-06,-2.29,4
1267,0.000197,0.000208,1.1e-05,5.6,4
1268,0.000293,0.000311,1.8e-05,6.29,4
1269,0.000264,0.000259,-6e-06,-2.16,4
1270,0.000283,0.000289,5e-06,1.91,4
1271,0.000352,0.000312,-4.1e-05,-11.57,4
1272,0.000291,0.000279,-1.2e-05,-3.98,4
1273,0.000263,0.000286,2.3e-05,8.85,4
1274,0.000272,0.000277,5e-06,1.72,4
1275,0.000132,0.000136,4e-06,3.15,4
1276,0.000271,0.000285,1.4e-05,5.33,4
1277,0.000271,0.000257,-1.5e-05,-5.42,4
1278,0.000302,0.00029,-1.3e-05,-4.15,4
1279,0.00033,0.000334,4e-06,1.23,4
1280,0.000288,0.000281,-6e-06,-2.25,4
1281,0.000236,0.000223,-1.3e-05,-5.62,4
1282,0.000237,0.000234,-3e-06,-1.07,4
1283,0.000333,0.000269,-6.4e-05,-19.27,4
1284,0.000271,0.000281,1.1e-05,3.88,4
1285,0.000344,0.000314,-3e-05,-8.73,4
1286,0.000315,0.000332,1.6e-05,5.2,4
1287,0.000321,0.000237,-8.4e-05,-26.1,4
1288,0.000285,0.000264,-2.1e-05,-7.42,4
1289,0.000297,0.000306,1e-05,3.25,4
1290,0.000237,0.000235,-2e-06,-0.63,4
1291,0.000317,0.000333,1.6e-05,4.97,4
1292,0.000221,0.000244,2.4e-05,10.7,4
1293,0.000264,0.000264,-0.0,-0.09,4
1294,0.000291,0.000274,-1.7e-05,-5.7,4
1295,0.000386,0.000361,-2.6e-05,-6.62,4
1296,0.000258,0.000263,5e-06,1.93,4
1297,0.000286,0.000286,-0.0,-0.02,4
1298,0.000201,0.000197,-4e-06,-1.94,4
1299,0.000343,0.000317,-2.6e-05,-7.61,4
1300,0.000271,0.000281,1e-05,3.67,4
1301,0.000264,0.000271,6e-06,2.41,4
1302,0.000302,0.000288,-1.4e-05,-4.77,4
1303,0.000386,0.000377,-9e-06,-2.43,4
1304,0.000382,0.000382,-0.0,-0.06,4
1305,0.000263,0.000278,1.5e-05,5.52,4
1306,0.000208,0.000213,5e-06,2.25,4
1307,0.000333,0.000289,-4.4e-05,-13.23,4
1308,0.000249,0.000236,-1.3e-05,-5.2,4
1309,0.000222,0.000224,2e-06,0.86,4
1310,0.000144,0.000142,-2e-06,-1.51,4
1311,0.000193,0.000212,1.8e-05,9.48,4
1312,0.00031,0.000316,6e-06,1.98,4
1313,0.000286,0.000287,1e-06,0.43,4
1314,0.000291,0.000273,-1.8e-05,-6.24,4
1315,0.000305,0.000308,3e-06,1.09,4
1316,0.000249,0.000239,-9e-06,-3.8,4
1317,0.000344,0.000328,-1.6e-05,-4.61,4
1318,0.000344,0.000352,8e-06,2.38,4
1319,0.000352,0.000338,-1.4e-05,-4.0,4
1320,0.000291,0.000279,-1.2e-05,-4.17,4
1321,0.000236,0.000228,-8e-06,-3.53,4
1322,0.000237,0.000237,-0.0,-0.01,4
1323,0.000132,0.000132,1e-06,0.52,4
1324,0.000249,0.00024,-8e-06,-3.35,4
1325,0.000222,0.000226,4e-06,1.59,4
1326,0.000312,0.000373,6.1e-05,19.4,4
1327,0.000252,0.000262,1e-05,4.01,4
1328,0.000388,0.000384,-5e-06,-1.16,4
1329,0.000236,0.000232,-5e-06,-2.02,4
1330,0.000201,0.000198,-3e-06,-1.63,4
1331,0.000132,0.000131,-0.0,-0.31,4
1332,0.000462,0.000408,-5.4e-05,-11.72,4
1333,0.000222,0.000227,4e-06,1.94,4
1334,0.000315,0.000325,1e-05,3.08,4
1335,0.000352,0.000324,-2.8e-05,-8.0,4
1336,0.000288,0.000284,-4e-06,-1.23,4
1337,0.000236,0.000234,-3e-06,-1.06,4
1338,0.000272,0.000318,4.6e-05,16.97,4
1339,0.000369,0.000344,-2.5e-05,-6.76,4
1340,0.000275,0.000245,-3e-05,-10.9,4
1341,0.000256,0.00025,-6e-06,-2.4,4
1342,0.000282,0.000236,-4.6e-05,-16.46,4
1343,0.000414,0.00034,-7.4e-05,-17.93,4
1344,0.000382,0.000386,4e-06,1.12,4
1345,0.000351,0.000377,2.6e-05,7.31,4
1346,0.000201,0.000197,-4e-06,-2.15,4
1347,0.0003,0.000282,-1.8e-05,-6.09,4
1348,0.000249,0.000244,-5e-06,-1.82,4
1349,0.000264,0.000271,7e-06,2.64,4
1350,0.000355,0.000355,-0.0,-0.02,4
1351,0.000193,0.000202,9e-06,4.76,4
1352,0.000291,0.000283,-8e-06,-2.69,4
1353,0.000263,0.000272,9e-06,3.51,4
1354,0.000311,0.00031,-1e-06,-0.23,4
1355,0.0003,0.000291,-9e-06,-3.05,4
1356,0.000221,0.000243,2.2e-05,10.07,4
1357,0.000222,0.000228,6e-06,2.59,4
1358,0.000305,0.000273,-3.2e-05,-10.56,4
1359,0.00033,0.000272,-5.8e-05,-17.61,4
1360,0.000258,0.000257,-1e-06,-0.24,4
1361,0.000286,0.000289,3e-06,0.95,4
1362,0.000237,0.000238,2e-06,0.66,4
1363,0.0003,0.000297,-4e-06,-1.17,4
1364,0.000271,0.000264,-8e-06,-2.8,4
1365,0.000365,0.000341,-2.4e-05,-6.47,4
1366,0.000144,0.000139,-5e-06,-3.45,4
1367,0.000352,0.000344,-8e-06,-2.27,4
1368,0.00031,0.000314,4e-06,1.27,4
1369,0.000309,0.00032,1.1e-05,3.6,4
1370,0.000311,0.000311,-1e-06,-0.18,4
1371,0.000343,0.000322,-2.1e-05,-6.22,4
1372,0.000271,0.000267,-4e-06,-1.41,4
1373,0.000354,0.000316,-3.8e-05,-10.63,4
1374,0.000283,0.000293,1e-05,3.4,4
1375,0.00033,0.000342,1.2e-05,3.65,4
1376,0.000165,0.000151,-1.4e-05,-8.64,4
1377,0.000286,0.000293,7e-06,2.53,4
1378,0.000259,0.000251,-8e-06,-3.06,4
1379,0.000343,0.000331,-1.2e-05,-3.53,4
1380,0.000221,0.00024,1.9e-05,8.54,4
1381,0.000271,0.000256,-1.5e-05,-5.53,4
1382,0.000144,0.000139,-5e-06,-3.68,4
1383,0.00033,0.000345,1.4e-05,4.31,4
1384,0.000288,0.000287,-0.0,-0.13,4
1385,0.000236,0.000235,-2e-06,-0.73,4
1386,0.000237,0.000239,2e-06,0.99,4
1387,0.000197,0.0002,3e-06,1.58,4
1388,0.000275,0.000251,-2.4e-05,-8.87,4
1389,0.000365,0.00035,-1.5e-05,-4.08,4
1390,0.000355,0.000353,-2e-06,-0.43,4
1391,0.000352,0.000337,-1.6e-05,-4.47,4
1392,0.000258,0.000255,-2e-06,-0.92,4
1393,0.000297,0.000299,2e-06,0.71,4
1394,0.000237,0.000239,3e-06,1.06,4
1395,0.000132,0.000131,-0.0,-0.36,4
1396,0.000275,0.000256,-1.9e-05,-6.89,4
1397,0.000264,0.000274,1e-05,3.71,4
1398,0.000134,0.000133,-1e-06,-0.74,4
1399,0.000252,0.000259,7e-06,2.6,4
1400,0.000165,0.000154,-1.2e-05,-7.02,4
1401,0.000282,0.000273,-8e-06,-2.97,4
1402,0.000201,0.000198,-3e-06,-1.47,4
1403,0.000274,0.000253,-2.1e-05,-7.64,4
1404,0.000271,0.00027,-1e-06,-0.52,4
1405,0.000141,0.000141,-1e-06,-0.4,4
1406,0.000144,0.000138,-6e-06,-4.33,4
1407,0.000352,0.000348,-4e-06,-1.12,4
1408,0.000291,0.000284,-7e-06,-2.42,4
1409,0.000351,0.000364,1.2e-05,3.53,4
1410,0.000324,0.000322,-2e-06,-0.62,4
1411,0.000298,0.000307,8e-06,2.81,4
1412,0.00024,0.000268,2.8e-05,11.54,4
1413,0.000354,0.000324,-3e-05,-8.4,4
1414,0.000144,0.000137,-6e-06,-4.43,4
1415,0.000414,0.000372,-4.2e-05,-10.08,4
1416,0.000165,0.000155,-1e-05,-6.11,4
1417,0.000282,0.000273,-9e-06,-3.16,4
1418,0.000272,0.000291,1.9e-05,7.02,4
1419,0.000305,0.000307,2e-06,0.55,4
1420,0.000462,0.000429,-3.3e-05,-7.14,4
1421,9.4e-05,9.7e-05,4e-06,4.1,4
1422,0.000302,0.000285,-1.7e-05,-5.6,4
1423,0.000193,0.000199,6e-06,3.1,4
1424,0.000288,0.000291,3e-06,1.07,4
1425,0.000309,0.000322,1.3e-05,4.1,4
1426,0.000259,0.000256,-3e-06,-1.21,4
1427,0.000197,0.000198,1e-06,0.4,4
1428,0.000357,0.000368,1.2e-05,3.26,4
1429,0.000354,0.000334,-1.9e-05,-5.47,4
1430,0.000282,0.000265,-1.8e-05,-6.25,4
1431,0.000188,0.000178,-1e-05,-5.4,4
1432,0.000302,0.000316,1.4e-05,4.62,4
1433,0.000243,0.00026,1.7e-05,6.99,4
1434,0.000208,0.000213,5e-06,2.49,4
1435,0.000259,0.000264,4e-06,1.71,4
1436,0.000293,0.000284,-8e-06,-2.88,4
1437,9.4e-05,9.6e-05,2e-06,2.35,4
1438,0.000283,0.000294,1.1e-05,3.78,4
1439,0.000252,0.000258,5e-06,2.14,4
1440,0.000244,0.000217,-2.7e-05,-11.03,4
1441,0.000263,0.000272,9e-06,3.4,4
1442,0.000153,0.000152,-0.0,-0.26,4
1443,0.0003,0.000302,2e-06,0.69,4
1444,0.000293,0.000288,-5e-06,-1.63,4
1445,0.000141,0.000139,-2e-06,-1.67,4
1446,0.000365,0.000347,-1.8e-05,-5.04,4
1447,0.00033,0.000297,-3.3e-05,-10.11,4
1448,0.000302,0.000312,1e-05,3.41,4
1449,0.000243,0.000253,1e-05,4.27,4
1450,0.000237,0.00024,3e-06,1.35,4
1451,0.000369,0.000356,-1.2e-05,-3.35,4
1452,0.000462,0.000442,-2e-05,-4.29,4
1453,0.000271,0.000264,-8e-06,-2.83,4
1454,0.000315,0.000322,7e-06,2.09,4
1455,0.000193,0.000196,3e-06,1.43,4
1456,0.000241,0.000251,9e-06,3.79,4
1457,0.000243,0.000251,8e-06,3.37,4
1458,0.000208,0.000214,5e-06,2.53,4
1459,0.000274,0.000252,-2.2e-05,-7.95,4
1460,0.000271,0.000267,-4e-06,-1.62,4
1461,0.00023,0.000254,2.4e-05,10.23,4
1462,0.000282,0.000275,-7e-06,-2.42,4
1463,0.000252,0.000262,1e-05,4.04,4
1464,0.000285,0.000263,-2.2e-05,-7.87,4
1465,0.000297,0.000297,1e-06,0.19,4
1466,0.000201,0.000197,-4e-06,-2.13,4
1467,0.000259,0.000265,6e-06,2.34,4
1468,0.000249,0.000248,-1e-06,-0.34,4
1469,0.000256,0.000256,0.0,0.15,4
1470,0.000302,0.000288,-1.5e-05,-4.81,4
1471,0.00033,0.000349,1.9e-05,5.73,4
1472,0.000241,0.00025,9e-06,3.63,4
1473,0.000236,0.000236,-0.0,-0.04,4
1474,0.000237,0.00024,3e-06,1.3,4
1475,0.000197,0.000196,-1e-06,-0.48,4
1476,0.000271,0.000268,-3e-06,-1.18,4
1477,0.000271,0.000268,-4e-06,-1.39,4
1478,0.000315,0.000321,6e-06,2.01,4
1479,0.000386,0.000382,-4e-06,-1.05,4
1480,0.000382,0.000382,1e-06,0.18,4
1481,0.000243,0.00025,8e-06,3.11,4
1482,0.000237,0.00024,3e-06,1.34,4
1483,0.000274,0.000255,-1.9e-05,-6.95,4
1484,0.00027,0.000273,4e-06,1.3,4
1485,0.000264,0.000271,7e-06,2.67,4
1486,0.000134,0.000133,-1e-06,-0.55,4
1487,0.000193,0.000195,1e-06,0.73,4
1488,0.000258,0.000253,-5e-06,-1.79,4
1489,0.000351,0.000362,1.1e-05,3.13,4
1490,9.2e-05,0.00011,1.7e-05,18.95,4
1491,0.000132,0.000131,-0.0,-0.34,4
1492,0.000275,0.000258,-1.7e-05,-6.3,4
1493,0.00023,0.000251,2.1e-05,9.16,4
1494,0.000291,0.000281,-9e-06,-3.13,4
1495,0.000188,0.000179,-9e-06,-4.94,4
1496,0.000388,0.000392,4e-06,0.9,4
1497,0.000236,0.000237,1e-06,0.29,4
1498,0.000153,0.00015,-3e-06,-1.83,4
1499,0.000132,0.000131,-1e-06,-0.43,4
1500,0.000249,0.000249,1e-06,0.36,4
1501,0.000222,0.000228,5e-06,2.43,4
1502,0.000315,0.000322,6e-06,2.04,4
1503,0.000352,0.00035,-2e-06,-0.61,4
1504,0.000241,0.000249,8e-06,3.25,4
1505,0.000327,0.000337,1e-05,3.11,4
1506,0.000291,0.000273,-1.8e-05,-6.24,4
1507,0.000369,0.000366,-3e-06,-0.84,4
1508,0.000357,0.000364,8e-06,2.17,4
1509,0.000264,0.000272,8e-06,2.84,4
1510,0.000344,0.000343,-1e-06,-0.22,4
1511,0.000386,0.000387,1e-06,0.14,4
1512,0.000241,0.000248,7e-06,2.87,4
1513,0.000327,0.000336,9e-06,2.74,4
1514,0.000324,0.000323,-1e-06,-0.26,4
1515,0.000274,0.000258,-1.6e-05,-5.79,4
1516,0.000271,0.000282,1.2e-05,4.27,4
1517,0.00023,0.000247,1.6e-05,7.11,4
1518,0.000144,0.000137,-7e-06,-4.79,4
1519,0.000188,0.00018,-8e-06,-4.37,4
1520,0.000291,0.000282,-9e-06,-3.04,4
1521,0.000263,0.000274,1e-05,3.98,4
1522,0.000291,0.000276,-1.5e-05,-5.17,4
1523,0.000317,0.000328,1.1e-05,3.43,4
1524,0.000221,0.000236,1.5e-05,6.72,4
1525,0.000256,0.00026,4e-06,1.47,4
1526,0.000283,0.000296,1.2e-05,4.29,4
1527,0.000352,0.000336,-1.6e-05,-4.62,4
1528,0.000291,0.000283,-8e-06,-2.91,4
1529,0.000351,0.00036,8e-06,2.42,4
1530,0.000201,0.000197,-5e-06,-2.24,4
1531,0.000298,0.000301,2e-06,0.78,4
1532,0.000275,0.000261,-1.5e-05,-5.31,4
1533,9.4e-05,9.5e-05,1e-06,1.14,4
1534,0.000365,0.000353,-1.2e-05,-3.31,4
1535,0.000188,0.00018,-8e-06,-4.19,4
1536,0.000288,0.000291,3e-06,1.01,4
1537,0.000243,0.000251,8e-06,3.36,4
1538,0.000153,0.000148,-4e-06,-2.81,4
1539,0.000132,0.000131,-1e-06,-0.55,4
1540,0.000151,0.000135,-1.5e-05,-10.11,4
1541,0.000141,0.000137,-4e-06,-3.16,4
1542,0.000355,0.000348,-7e-06,-2.04,4
1543,0.000352,0.000343,-1e-05,-2.78,4
1544,0.000291,0.000282,-9e-06,-2.99,4
1545,0.0002,0.000205,5e-06,2.74,4
1546,0.000259,0.000256,-4e-06,-1.38,4
1547,0.000298,0.000299,0.0,0.06,4
1548,0.000151,0.000136,-1.4e-05,-9.4,4
1549,0.000344,0.000345,2e-06,0.44,4
1550,0.000283,0.000294,1.1e-05,3.76,4
1551,0.000252,0.000267,1.4e-05,5.72,4
1552,0.000165,0.000159,-7e-06,-4.01,4
1553,0.000297,0.000296,-1e-06,-0.18,4
1554,0.000208,0.000215,7e-06,3.43,4
1555,0.000259,0.000267,8e-06,3.09,4
1556,0.00027,0.000279,9e-06,3.46,4
1557,0.000344,0.000349,5e-06,1.47,4
1558,0.000365,0.000357,-9e-06,-2.33,4
1559,0.000414,0.000391,-2.3e-05,-5.57,4
1560,0.000291,0.000283,-8e-06,-2.85,4
1561,0.000297,0.000296,-0.0,-0.12,4
1562,0.000272,0.000285,1.3e-05,4.91,4
1563,0.000274,0.000261,-1.2e-05,-4.55,4
1564,0.000151,0.000137,-1.3e-05,-8.79,4
1565,0.000344,0.000352,8e-06,2.3,4
1566,0.000291,0.000288,-3e-06,-0.97,4
1567,0.000377,0.00039,1.3e-05,3.45,4
1568,0.00031,0.000315,5e-06,1.65,4
1569,0.000327,0.000338,1.1e-05,3.32,4
1570,0.000291,0.000277,-1.4e-05,-4.95,4
1571,0.000259,0.000267,8e-06,2.97,4
1572,0.000221,0.000232,1.1e-05,5.13,4
1573,0.000354,0.000345,-9e-06,-2.43,4
1574,0.000282,0.00028,-2e-06,-0.61,4
1575,0.000377,0.0004,2.3e-05,6.09,4
1576,0.000244,0.000218,-2.6e-05,-10.61,4
1577,0.000309,0.000317,8e-06,2.67,4
1578,0.000311,0.000311,-0.0,-0.11,4
1579,0.000343,0.000334,-1e-05,-2.8,4
1580,0.000249,0.000251,3e-06,1.15,4
1581,0.000256,0.000255,-1e-06,-0.4,4
1582,0.000291,0.00029,-1e-06,-0.27,4
1583,0.000414,0.0004,-1.4e-05,-3.4,4
1584,0.000302,0.000306,4e-06,1.42,4
1585,0.000111,0.000111,0.0,0.41,4
1586,0.000272,0.000281,9e-06,3.38,4
1587,0.000305,0.000311,6e-06,2.09,4
1588,0.000151,0.000138,-1.3e-05,-8.4,4
1589,0.000465,0.000467,2e-06,0.34,4
1590,0.000365,0.00036,-5e-06,-1.36,4
1591,0.000252,0.000268,1.6e-05,6.41,4
1592,0.00031,0.000315,5e-06,1.62,4
1593,0.0002,0.000204,5e-06,2.32,4
1594,0.000272,0.000277,6e-06,2.03,4
1595,0.000274,0.000264,-1e-05,-3.55,4
1596,0.000249,0.000252,3e-06,1.26,4
1597,0.000264,0.000271,7e-06,2.56,4
1598,0.000315,0.000323,8e-06,2.48,4
1599,0.000321,0.000327,6e-06,2.02,4
1600,0.000291,0.000284,-7e-06,-2.5,4
1601,0.000318,0.000318,0.0,0.04,4
1602,0.000237,0.000241,4e-06,1.63,4
1603,0.0003,0.000313,1.3e-05,4.34,4
1604,0.000293,0.000292,-1e-06,-0.27,4
1605,9.4e-05,9.5e-05,2e-06,1.89,4
1606,0.000312,0.000323,1e-05,3.27,4
1607,0.00033,0.00031,-2e-05,-6.13,4
1608,0.000165,0.00016,-5e-06,-2.99,4
1609,0.0002,0.000202,3e-06,1.34,4
1610,9.2e-05,0.000103,1.1e-05,11.59,4
1611,0.000333,0.000285,-4.8e-05,-14.37,4
1612,0.000271,0.000268,-3e-06,-1.2,4
1613,0.000354,0.000349,-5e-06,-1.29,4
1614,0.000291,0.000292,1e-06,0.43,4
1615,0.000352,0.000347,-5e-06,-1.42,4
1616,0.00031,0.000316,6e-06,1.86,4
1617,0.000236,0.000238,2e-06,0.8,4
1618,0.000272,0.000275,3e-06,1.04,4
1619,0.000335,0.000342,7e-06,1.95,4
1620,0.00024,0.000262,2.2e-05,9.25,4
1621,0.000354,0.000353,-1e-06,-0.18,4
1622,0.000134,0.000133,-1e-06,-0.5,4
1623,0.000352,0.000353,0.0,0.05,4
1624,0.000241,0.000249,8e-06,3.26,4
1625,0.000111,0.00011,-1e-06,-0.63,4
1626,0.000237,0.00024,4e-06,1.52,4
1627,0.000132,0.000132,-0.0,-0.15,4
1628,0.000275,0.000262,-1.4e-05,-4.93,4
1629,0.000271,0.000271,0.0,0.02,4
1630,0.000344,0.000345,1e-06,0.39,4
1631,0.000321,0.000339,1.8e-05,5.69,4
1632,0.000244,0.00022,-2.4e-05,-9.66,4
1633,0.000351,0.000359,7e-06,2.12,4
1634,0.000259,0.000256,-3e-06,-1.33,4
1635,0.000274,0.000265,-9e-06,-3.29,4
1636,0.000293,0.000293,0.0,0.08,4
1637,0.000232,0.000219,-1.3e-05,-5.42,4
1638,0.000355,0.000347,-8e-06,-2.34,4
1639,0.000377,0.0004,2.3e-05,6.03,4
1640,0.000285,0.000268,-1.8e-05,-6.15,4
1641,0.000243,0.00025,8e-06,3.16,4
1642,0.000272,0.000272,0.0,0.11,4
1643,0.000132,0.000131,-1e-06,-0.52,4
1644,0.000249,0.000253,4e-06,1.7,4
1645,0.000271,0.000273,2e-06,0.71,4
1646,0.000305,0.000294,-1.2e-05,-3.85,4
1647,0.000321,0.000344,2.3e-05,7.15,4
1648,0.000285,0.000271,-1.4e-05,-5.0,4
1649,0.000318,0.000317,-1e-06,-0.33,4
1650,0.000201,0.000195,-6e-06,-3.1,4
1651,0.0003,0.000317,1.7e-05,5.61,4
1652,0.000221,0.00023,9e-06,4.29,4
1653,0.000141,0.000136,-5e-06,-3.86,4
1654,0.000282,0.000289,6e-06,2.26,4
1655,0.000352,0.000349,-3e-06,-0.87,4
1656,0.000165,0.000161,-5e-06,-2.73,4
1657,0.0002,0.000201,2e-06,0.83,4
1658,9.2e-05,0.000101,9e-06,9.47,4
1659,0.000305,0.000309,4e-06,1.4,4
1660,0.000151,0.000138,-1.2e-05,-8.17,4
1661,0.000222,0.000229,7e-06,3.07,4
1662,0.000312,0.000318,5e-06,1.66,4
1663,0.00033,0.000349,1.9e-05,5.63,4
1664,0.000241,0.000249,7e-06,3.03,4
1665,0.000351,0.000359,8e-06,2.19,4
1666,0.000201,0.000194,-7e-06,-3.29,4
1667,0.000333,0.000297,-3.5e-05,-10.61,4
1668,0.000271,0.000284,1.3e-05,4.75,4
1669,9.4e-05,9.5e-05,2e-06,1.91,4
1670,0.000315,0.000322,7e-06,2.28,4
1671,0.000414,0.000407,-7e-06,-1.67,4
1672,0.000244,0.000222,-2.2e-05,-9.1,4
1673,0.000263,0.000273,1e-05,3.88,4
1674,0.000324,0.000327,3e-06,0.85,4
1675,0.000197,0.000195,-2e-06,-1.2,4
1676,0.000221,0.00023,9e-06,4.2,4
1677,0.000264,0.000271,6e-06,2.39,4
1678,0.000365,0.000366,1e-06,0.26,4
1679,0.000352,0.000356,3e-06,0.97,4
1680,0.000285,0.000273,-1.2e-05,-4.09,4
1681,0.000297,0.000297,0.0,0.11,4
1682,0.000375,0.000377,2e-06,0.64,4
1683,0.000298,0.000297,-1e-06,-0.38,4
1684,0.000275,0.000264,-1.1e-05,-4.15,4
1685,9.4e-05,9.5e-05,2e-06,1.97,4
1686,0.000134,0.000133,-1e-06,-0.73,4
1687,0.000414,0.000414,0.0,0.07,4
1688,0.000241,0.000248,7e-06,2.75,4
1689,0.000286,0.000295,9e-06,3.24,4
1690,0.000324,0.000328,4e-06,1.09,4
1691,0.000132,0.000131,-1e-06,-0.64,4
1692,0.000275,0.000265,-1e-05,-3.65,4
1693,0.000222,0.00023,8e-06,3.52,4
1694,0.000282,0.000291,9e-06,3.19,4
1695,0.00033,0.000318,-1.2e-05,-3.57,4
1696,0.000165,0.000161,-4e-06,-2.36,4
1697,0.000297,0.000297,1e-06,0.19,4
1698,9.2e-05,9.9e-05,7e-06,7.38,4
1699,0.000259,0.000268,9e-06,3.46,4
1700,0.000293,0.000294,2e-06,0.6,4
1701,0.000141,0.000135,-6e-06,-4.56,4
1702,0.000134,0.000132,-1e-06,-0.95,4
1703,0.000377,0.000398,2.1e-05,5.49,4
1704,0.000165,0.000161,-4e-06,-2.39,4
1705,0.000351,0.000359,8e-06,2.21,4
1706,0.000324,0.000329,4e-06,1.36,4
1707,0.000274,0.000266,-8e-06,-2.98,4
1708,0.00024,0.000261,2.1e-05,8.79,4
1709,0.000256,0.000253,-3e-06,-1.0,4
1710,0.000344,0.000348,5e-06,1.36,4
1711,0.00033,0.00035,1.9e-05,5.85,4
1712,0.000285,0.000275,-1e-05,-3.54,4
1713,0.000243,0.000249,7e-06,2.75,4
1714,0.000259,0.000257,-2e-06,-0.72,4
1715,0.000197,0.000194,-3e-06,-1.49,4
1716,0.00024,0.000259,1.8e-05,7.64,4
1717,0.000232,0.000226,-6e-06,-2.51,4
1718,0.000283,0.000295,1.1e-05,4.04,4
1719,0.00033,0.000323,-7e-06,-2.11,4
1720,0.000288,0.000296,8e-06,2.73,4
1721,0.000351,0.000359,8e-06,2.28,4
1722,0.000237,0.000241,4e-06,1.69,4
1723,0.000259,0.000268,9e-06,3.41,4
1724,0.000275,0.000267,-9e-06,-3.1,4
1725,0.000222,0.00023,8e-06,3.68,4
1726,0.000144,0.000137,-7e-06,-4.79,4
1727,0.000386,0.00038,-6e-06,-1.57,4
1728,0.000285,0.000276,-9e-06,-3.12,4
1729,0.000236,0.00024,4e-06,1.49,4
1730,0.000272,0.00027,-2e-06,-0.86,4
1731,0.000317,0.000321,5e-06,1.46,4
1732,0.00027,0.000284,1.4e-05,5.17,4
1733,0.00023,0.00025,2e-05,8.47,4
1734,0.000302,0.000292,-1e-05,-3.23,4
1735,0.000377,0.000396,1.9e-05,5.05,4
1736,0.00031,0.000315,5e-06,1.7,4
1737,0.000236,0.00024,4e-06,1.55,4
1738,0.000291,0.00028,-1.2e-05,-3.98,4
1739,0.000305,0.000311,6e-06,1.91,4
1740,0.00027,0.000285,1.5e-05,5.56,4
1741,0.000365,0.000355,-1e-05,-2.74,4
1742,0.000134,0.000132,-1e-06,-1.08,4
1743,0.000321,0.000351,3e-05,9.32,4
1744,0.000165,0.000161,-4e-06,-2.37,4
1745,0.000351,0.000359,8e-06,2.27,4
1746,0.000153,0.000146,-6e-06,-3.95,4
1747,0.000335,0.000334,-2e-06,-0.45,4
1748,0.00027,0.000286,1.6e-05,5.88,4
1749,0.000232,0.00023,-2e-06,-0.97,4
1750,0.000344,0.00035,6e-06,1.75,4
1751,0.000252,0.000271,1.9e-05,7.63,4
1752,0.000241,0.000247,6e-06,2.46,4
1753,0.000243,0.000249,6e-06,2.66,4
1754,0.000153,0.000146,-7e-06,-4.37,4
1755,0.000132,0.000131,-1e-06,-0.78,4
1756,0.000221,0.00023,9e-06,4.26,4
1757,0.000344,0.000352,9e-06,2.51,4
1758,0.000144,0.000137,-7e-06,-4.93,4
1759,0.000193,0.000196,3e-06,1.45,4
1760,0.000388,0.0004,1.1e-05,2.92,4
1761,0.000351,0.000359,7e-06,2.1,4
1762,0.000311,0.000312,1e-06,0.37,4
1763,0.000259,0.000267,8e-06,3.0,4
1764,0.000271,0.000269,-2e-06,-0.74,4
1765,0.000264,0.000272,8e-06,2.85,4
1766,0.000344,0.000351,7e-06,2.11,4
1767,0.000252,0.000272,1.9e-05,7.72,4
1768,0.000258,0.00025,-8e-06,-3.07,4
1769,0.000243,0.000248,6e-06,2.27,4
1770,0.000237,0.000241,4e-06,1.64,4
1771,0.000132,0.000131,-1e-06,-0.9,4
1772,0.000271,0.000283,1.2e-05,4.42,4
1773,0.000256,0.000255,-1e-06,-0.34,4
1774,0.000365,0.00037,5e-06,1.45,4
1775,0.00033,0.000326,-4e-06,-1.15,4
1776,0.000285,0.000277,-8e-06,-2.72,4
1777,0.000297,0.000297,0.0,0.14,4
1778,0.000201,0.000194,-7e-06,-3.36,4
1779,0.00037,0.000376,6e-06,1.54,4
1780,0.000249,0.000253,5e-06,1.85,4
1781,0.000141,0.000134,-7e-06,-4.82,4
1782,0.000134,0.000132,-2e-06,-1.25,4
1783,0.000352,0.000351,-0.0,-0.12,4
1784,0.000288,0.000295,8e-06,2.63,4
1785,0.000327,0.000336,9e-06,2.77,4
1786,0.000259,0.000258,-1e-06,-0.47,4
1787,0.000298,0.000296,-2e-06,-0.73,4
1788,0.000271,0.00027,-1e-06,-0.5,4
1789,0.000271,0.000277,5e-06,1.95,4
1790,0.000305,0.000299,-7e-06,-2.24,4
1791,0.000352,0.000354,3e-06,0.75,4
1792,0.000382,0.000384,2e-06,0.47,4
1793,0.000243,0.000248,5e-06,2.06,4
1794,0.000237,0.000241,4e-06,1.69,4
1795,0.000343,0.000336,-7e-06,-2.03,4
1796,0.000357,0.000356,-1e-06,-0.3,4
1797,0.00023,0.000248,1.8e-05,7.61,4
1798,0.000144,0.000137,-7e-06,-4.86,4
1799,0.00033,0.000351,2e-05,6.18,4
1800,0.000374,0.000314,-6.1e-05,-16.22,8
1801,0.000326,0.000304,-2.2e-05,-6.66,8
1802,0.000212,0.000204,-8e-06,-3.76,8
1803,0.000265,0.000293,2.9e-05,10.85,8
1804,0.000249,0.000302,5.2e-05,20.86,8
1805,0.000306,0.000293,-1.2e-05,-4.03,8
1806,0.000259,0.00026,2e-06,0.6,8
1807,0.000281,0.000408,0.000127,45.07,8
1808,0.000396,0.000433,3.7e-05,9.34,8
1809,0.00043,0.000371,-5.9e-05,-13.82,8
1810,0.000249,0.000265,1.6e-05,6.38,8
1811,0.000475,0.000432,-4.3e-05,-9.01,8
1812,0.000184,0.000183,-1e-06,-0.64,8
1813,0.000259,0.000232,-2.7e-05,-10.56,8
1814,0.000232,0.000226,-5e-06,-2.27,8
1815,0.000249,0.000164,-8.6e-05,-34.34,8
1816,0.000299,0.000294,-4e-06,-1.37,8
1817,0.000302,0.000297,-5e-06,-1.59,8
1818,0.000352,0.000329,-2.2e-05,-6.27,8
1819,0.000256,0.000293,3.8e-05,14.69,8
1820,0.00032,0.000286,-3.4e-05,-10.55,8
1821,0.000203,0.000176,-2.7e-05,-13.36,8
1822,0.000259,0.000263,4e-06,1.51,8
1823,0.000304,0.000245,-5.9e-05,-19.35,8
1824,0.000396,0.000383,-1.3e-05,-3.27,8
1825,0.000304,0.000302,-2e-06,-0.54,8
1826,0.000249,0.00024,-9e-06,-3.5,8
1827,0.000187,0.000161,-2.5e-05,-13.55,8
1828,0.00032,0.000309,-1e-05,-3.22,8
1829,0.000259,0.000254,-5e-06,-1.95,8
1830,0.000232,0.00022,-1.2e-05,-5.15,8
1831,0.00038,0.000327,-5.4e-05,-14.09,8
1832,0.000251,0.000224,-2.7e-05,-10.62,8
1833,0.000291,0.000264,-2.7e-05,-9.36,8
1834,0.000253,0.000262,1e-05,3.76,8
1835,0.000337,0.000336,-1e-06,-0.3,8
1836,0.000249,0.000257,7e-06,2.93,8
1837,0.000387,0.000401,1.4e-05,3.73,8
1838,0.000253,0.000211,-4.2e-05,-16.47,8
1839,0.000281,0.000313,3.2e-05,11.43,8
1840,0.000285,0.000251,-3.4e-05,-11.94,8
1841,0.000304,0.000227,-7.8e-05,-25.5,8
1842,0.000338,0.000271,-6.8e-05,-19.97,8
1843,0.000421,0.000346,-7.4e-05,-17.65,8
1844,0.000249,0.000256,6e-06,2.43,8
1845,0.000333,0.00028,-5.2e-05,-15.76,8
1846,0.000256,0.000261,5e-06,2.01,8
1847,0.000368,0.000387,1.9e-05,5.03,8
1848,0.000125,0.000103,-2.2e-05,-17.72,8
1849,0.000405,0.000356,-4.9e-05,-11.98,8
1850,0.000249,0.000244,-4e-06,-1.78,8
1851,0.000337,0.000336,-1e-06,-0.25,8
1852,0.000267,0.00025,-1.7e-05,-6.4,8
1853,0.000203,0.000177,-2.6e-05,-12.82,8
1854,0.000319,0.000277,-4.1e-05,-12.98,8
1855,0.000417,0.000313,-0.000104,-25.0,8
1856,0.000251,0.000239,-1.2e-05,-4.88,8
1857,0.000302,0.000282,-1.9e-05,-6.35,8
1858,0.000359,0.000344,-1.4e-05,-4.02,8
1859,0.000187,0.000173,-1.4e-05,-7.4,8
1860,0.000289,0.000305,1.6e-05,5.46,8
1861,0.000255,0.000232,-2.3e-05,-9.08,8
1862,0.000259,0.000256,-3e-06,-1.07,8
1863,0.000281,0.000287,6e-06,2.12,8
1864,0.000296,0.000261,-3.4e-05,-11.64,8
1865,0.000248,0.00024,-9e-06,-3.45,8
1866,0.000271,0.000256,-1.5e-05,-5.65,8
1867,0.000187,0.000175,-1.1e-05,-6.03,8
1868,0.000267,0.000255,-1.2e-05,-4.44,8
1869,0.000344,0.000325,-1.9e-05,-5.6,8
1870,0.000358,0.000325,-3.3e-05,-9.22,8
1871,0.00043,0.000357,-7.3e-05,-16.92,8
1872,0.000251,0.000245,-6e-06,-2.55,8
1873,0.000291,0.000279,-1.1e-05,-3.95,8
1874,0.000318,0.000323,5e-06,1.6,8
1875,0.000364,0.000361,-3e-06,-0.8,8
1876,0.000184,0.000181,-3e-06,-1.64,8
1877,0.000344,0.000336,-9e-06,-2.53,8
1878,0.000358,0.000337,-2e-05,-5.7,8
1879,0.000281,0.000285,4e-06,1.29,8
1880,0.000243,0.00021,-3.3e-05,-13.59,8
1881,0.000302,0.000278,-2.3e-05,-7.74,8
1882,0.000329,0.000312,-1.6e-05,-5.01,8
1883,0.000187,0.000177,-1e-05,-5.18,8
1884,0.00032,0.000311,-8e-06,-2.62,8
1885,0.000191,0.000184,-7e-06,-3.58,8
1886,0.000319,0.000303,-1.5e-05,-4.76,8
1887,0.00038,0.000361,-2e-05,-5.15,8
1888,0.000396,0.000364,-3.2e-05,-8.13,8
1889,0.000156,0.00013,-2.6e-05,-16.46,8
1890,0.000253,0.00026,7e-06,2.8,8
1891,0.000187,0.000179,-7e-06,-3.95,8
1892,0.000184,0.000178,-6e-06,-3.08,8
1893,0.000348,0.000326,-2.2e-05,-6.34,8
1894,0.000256,0.000263,7e-06,2.73,8
1895,0.0003,0.000276,-2.4e-05,-7.96,8
1896,0.000228,0.000197,-3e-05,-13.37,8
1897,0.000237,0.000246,9e-06,3.71,8
1898,0.000267,0.000301,3.5e-05,13.04,8
1899,0.000265,0.000258,-7e-06,-2.52,8
1900,0.000249,0.000248,-1e-06,-0.51,8
1901,0.000191,0.000174,-1.7e-05,-9.13,8
1902,0.000358,0.000347,-1.1e-05,-3.05,8
1903,0.0003,0.000296,-4e-06,-1.48,8
1904,0.000251,0.00025,-1e-06,-0.46,8
1905,0.000237,0.000248,1.1e-05,4.55,8
1906,0.000253,0.000258,6e-06,2.28,8
1907,0.000337,0.000336,-0.0,-0.15,8
1908,0.00014,0.00012,-2e-05,-14.15,8
1909,0.000191,0.000173,-1.8e-05,-9.59,8
1910,0.000319,0.000312,-7e-06,-2.07,8
1911,0.000417,0.000373,-4.5e-05,-10.69,8
1912,0.000125,9.9e-05,-2.6e-05,-20.55,8
1913,0.000248,0.000237,-1.1e-05,-4.51,8
1914,0.000352,0.000341,-1.1e-05,-3.14,8
1915,0.00033,0.000328,-2e-06,-0.57,8
1916,0.000312,0.00032,8e-06,2.64,8
1917,0.000269,0.000196,-7.3e-05,-27.15,8
1918,0.000186,0.000185,-2e-06,-0.94,8
1919,0.000249,0.00024,-9e-06,-3.6,8
1920,0.00031,0.000303,-6e-06,-2.0,8
1921,0.000156,0.000138,-1.8e-05,-11.62,8
1922,0.000253,0.000259,7e-06,2.59,8
1923,0.00033,0.000332,2e-06,0.71,8
1924,0.000184,0.000173,-1.1e-05,-5.88,8
1925,0.000333,0.000303,-2.9e-05,-8.86,8
1926,0.000253,0.000244,-9e-06,-3.43,8
1927,0.000252,0.000239,-1.3e-05,-5.21,8
1928,0.000285,0.000261,-2.4e-05,-8.42,8
1929,0.000237,0.000246,9e-06,3.69,8
1930,0.000271,0.000264,-8e-06,-2.85,8
1931,0.000403,0.000398,-4e-06,-1.11,8
1932,0.000242,0.000254,1.2e-05,4.98,8
1933,0.000191,0.000177,-1.4e-05,-7.53,8
1934,0.000253,0.000253,-0.0,-0.01,8
1935,0.000195,0.000207,1.2e-05,5.99,8
1936,0.000374,0.000375,1e-06,0.28,8
1937,0.000291,0.000284,-7e-06,-2.34,8
1938,0.000212,0.000186,-2.6e-05,-12.13,8
1939,0.00033,0.000331,1e-06,0.27,8
1940,0.00032,0.000318,-2e-06,-0.5,8
1941,0.000306,0.000293,-1.3e-05,-4.18,8
1942,0.000256,0.000256,1e-06,0.31,8
1943,0.000407,0.000366,-4.1e-05,-10.13,8
1944,0.000243,0.000218,-2.5e-05,-10.25,8
1945,0.000215,0.000219,4e-06,1.96,8
1946,0.000357,0.000358,0.0,0.13,8
1947,0.000286,0.000334,4.8e-05,16.73,8
1948,0.000215,0.000193,-2.2e-05,-10.23,8
1949,0.000259,0.000246,-1.3e-05,-4.93,8
1950,0.000319,0.000323,4e-06,1.2,8
1951,0.000249,0.000265,1.5e-05,6.19,8
1952,0.000285,0.000266,-1.8e-05,-6.47,8
1953,0.00043,0.000451,2.1e-05,4.98,8
1954,0.000249,0.000247,-2e-06,-0.67,8
1955,0.000337,0.000336,-1e-06,-0.38,8
1956,0.000277,0.000295,1.8e-05,6.54,8
1957,0.000154,0.000152,-2e-06,-1.4,8
1958,0.000256,0.000258,3e-06,1.12,8
1959,0.000195,0.000196,1e-06,0.31,8
1960,0.000315,0.000308,-6e-06,-1.95,8
1961,0.000156,0.00014,-1.6e-05,-10.37,8
1962,0.000357,0.000355,-3e-06,-0.72,8
1963,0.000396,0.000381,-1.5e-05,-3.83,8
1964,0.000289,0.000272,-1.7e-05,-5.97,8
1965,0.000269,0.000224,-4.6e-05,-16.92,8
1966,0.000259,0.000257,-2e-06,-0.81,8
1967,0.000281,0.000285,4e-06,1.46,8
1968,0.000396,0.000367,-2.9e-05,-7.37,8
1969,0.00043,0.000453,2.3e-05,5.29,8
1970,0.000318,0.000321,3e-06,0.94,8
1971,0.000337,0.000337,0.0,0.06,8
1972,0.000312,0.000319,8e-06,2.53,8
1973,0.000333,0.000318,-1.5e-05,-4.41,8
1974,0.000256,0.00026,4e-06,1.7,8
1975,0.000252,0.000237,-1.5e-05,-6.11,8
1976,0.000299,0.000283,-1.5e-05,-5.15,8
1977,0.000215,0.000209,-6e-06,-2.63,8
1978,0.000249,0.000247,-2e-06,-0.79,8
1979,0.000187,0.000175,-1.2e-05,-6.26,8
1980,0.000184,0.000172,-1.2e-05,-6.26,8
1981,0.000203,0.000178,-2.5e-05,-12.19,8
1982,0.000232,0.000219,-1.3e-05,-5.43,8
1983,0.000304,0.000276,-2.8e-05,-9.24,8
1984,0.000299,0.000286,-1.2e-05,-4.11,8
1985,0.000304,0.000258,-4.6e-05,-15.25,8
1986,0.000318,0.000319,1e-06,0.34,8
1987,0.000396,0.000397,1e-06,0.16,8
1988,0.00014,0.000122,-1.7e-05,-12.25,8
1989,0.000387,0.000398,1.1e-05,2.77,8
1990,0.000198,0.0002,2e-06,0.95,8
1991,0.000368,0.000344,-2.4e-05,-6.41,8
1992,0.000315,0.00032,5e-06,1.63,8
1993,0.000291,0.000289,-2e-06,-0.53,8
1994,0.000267,0.000296,2.9e-05,10.86,8
1995,0.000349,0.000318,-3.1e-05,-8.87,8
1996,0.000315,0.000297,-1.9e-05,-5.88,8
1997,0.000259,0.000247,-1.2e-05,-4.75,8
1998,0.000347,0.000348,1e-06,0.34,8
1999,0.000281,0.000284,3e-06,1.23,8
2000,0.000251,0.000257,6e-06,2.37,8
2001,0.000326,0.000327,1e-06,0.39,8
2002,0.000357,0.000356,-2e-06,-0.46,8
2003,0.000364,0.000368,4e-06,1.13,8
2004,0.000277,0.00029,1.3e-05,4.73,8
2005,0.000344,0.000333,-1.1e-05,-3.32,8
2006,0.000358,0.000347,-1.1e-05,-3.0,8
2007,0.000195,0.000193,-2e-06,-1.26,8
2008,0.000296,0.0003,4e-06,1.41,8
2009,0.000302,0.00028,-2.2e-05,-7.32,8
2010,0.000271,0.000265,-6e-06,-2.28,8
2011,0.000256,0.000259,3e-06,1.17,8
2012,0.000312,0.00032,8e-06,2.57,8
2013,0.000387,0.000396,9e-06,2.43,8
2014,0.000256,0.000261,5e-06,2.1,8
2015,0.000249,0.000267,1.8e-05,7.13,8
2016,0.000315,0.000325,1e-05,3.32,8
2017,0.000304,0.000277,-2.7e-05,-9.0,8
2018,0.000359,0.000346,-1.3e-05,-3.49,8
2019,0.000421,0.000399,-2.2e-05,-5.16,8
2020,0.000215,0.000194,-2.1e-05,-9.82,8
2021,0.000269,0.000236,-3.3e-05,-12.24,8
2022,0.000356,0.000302,-5.4e-05,-15.25,8
2023,0.0003,0.000303,3e-06,1.05,8
2024,0.000396,0.000368,-2.8e-05,-7.04,8
2025,0.000304,0.000287,-1.8e-05,-5.77,8
2026,0.000271,0.000269,-2e-06,-0.9,8
2027,0.000475,0.000482,7e-06,1.37,8
2028,0.000184,0.000174,-1e-05,-5.18,8
2029,0.000269,0.000243,-2.6e-05,-9.6,8
2030,0.000259,0.000258,-1e-06,-0.31,8
2031,0.000249,0.000268,1.9e-05,7.69,8
2032,0.000429,0.000426,-3e-06,-0.68,8
2033,0.000156,0.000143,-1.4e-05,-8.68,8
2034,0.000329,0.000304,-2.5e-05,-7.55,8
2035,0.000256,0.000254,-2e-06,-0.65,8
2036,0.000315,0.000309,-7e-06,-2.15,8
2037,0.000306,0.000309,4e-06,1.21,8
2038,0.000356,0.000325,-3.1e-05,-8.59,8
2039,0.000304,0.00029,-1.4e-05,-4.55,8
2040,0.000251,0.000257,6e-06,2.47,8
2041,0.000291,0.000291,1e-06,0.26,8
2042,0.000253,0.000261,8e-06,3.1,8
2043,0.000349,0.000337,-1.2e-05,-3.37,8
2044,0.000215,0.000194,-2.1e-05,-9.78,8
2045,0.000387,0.0004,1.3e-05,3.38,8
2046,0.000347,0.00034,-7e-06,-1.9,8
2047,0.000252,0.00023,-2.2e-05,-8.68,8
2048,0.000299,0.000288,-1.1e-05,-3.57,8
2049,0.000304,0.000293,-1.1e-05,-3.76,8
2050,0.000249,0.000249,0.0,0.14,8
2051,0.000286,0.000315,2.8e-05,9.94,8
2052,0.000289,0.000277,-1.2e-05,-4.15,8
2053,0.000344,0.000339,-5e-06,-1.47,8
2054,0.000253,0.000266,1.3e-05,5.24,8
2055,0.000368,0.000353,-1.5e-05,-4.09,8
2056,0.000243,0.000216,-2.7e-05,-11.28,8
2057,0.000248,0.00024,-8e-06,-3.19,8
2058,0.000329,0.000304,-2.5e-05,-7.5,8
2059,0.000349,0.000344,-4e-06,-1.28,8
2060,0.000215,0.000195,-2e-05,-9.5,8
2061,0.000255,0.000251,-4e-06,-1.65,8
2062,0.000259,0.000259,0.0,0.01,8
2063,0.000407,0.000411,3e-06,0.77,8
2064,0.000228,0.000214,-1.3e-05,-5.8,8
2065,0.000405,0.000369,-3.6e-05,-9.0,8
2066,0.000253,0.00026,7e-06,2.86,8
2067,0.000187,0.000177,-1e-05,-5.12,8
2068,0.000277,0.000289,1.2e-05,4.25,8
2069,0.000255,0.000254,-1e-06,-0.2,8
2070,0.000358,0.00035,-7e-06,-2.06,8
2071,0.000407,0.000419,1.2e-05,2.83,8
2072,0.000125,0.000102,-2.3e-05,-18.56,8
2073,0.000291,0.000294,3e-06,1.08,8
2074,0.000357,0.000356,-2e-06,-0.51,8
2075,0.000349,0.00035,2e-06,0.51,8
2076,0.000277,0.000286,9e-06,3.35,8
2077,0.000191,0.000184,-7e-06,-3.67,8
2078,0.000232,0.000221,-1.1e-05,-4.77,8
2079,0.000195,0.000191,-5e-06,-2.4,8
2080,0.000125,0.000103,-2.2e-05,-17.7,8
2081,0.000304,0.000298,-6e-06,-2.13,8
2082,0.000357,0.000357,-1e-06,-0.22,8
2083,0.000364,0.000372,8e-06,2.29,8
2084,0.000315,0.000315,0.0,0.03,8
2085,0.000344,0.000345,0.0,0.11,8
2086,0.000253,0.000268,1.5e-05,5.87,8
2087,0.000342,0.00033,-1.1e-05,-3.3,8
2088,0.00031,0.000317,8e-06,2.49,8
2089,0.000248,0.000244,-4e-06,-1.51,8
2090,0.000329,0.000306,-2.2e-05,-6.8,8
2091,0.000349,0.000353,4e-06,1.23,8
2092,0.000249,0.000252,3e-06,1.15,8
2093,0.000203,0.000177,-2.6e-05,-12.67,8
2094,0.000347,0.00034,-7e-06,-1.92,8
2095,0.000417,0.000391,-2.6e-05,-6.3,8
2096,0.000243,0.000216,-2.7e-05,-11.11,8
2097,0.000215,0.000206,-8e-06,-3.93,8
2098,0.000271,0.000271,-0.0,-0.06,8
2099,0.000187,0.000177,-9e-06,-4.96,8
2100,0.000267,0.000256,-1.1e-05,-4.03,8
2101,0.000344,0.000346,1e-06,0.35,8
2102,0.000356,0.00034,-1.6e-05,-4.42,8
2103,0.000342,0.000341,-0.0,-0.1,8
2104,0.000296,0.000312,1.6e-05,5.51,8
2105,0.000304,0.000302,-2e-06,-0.66,8
2106,0.000359,0.00035,-9e-06,-2.44,8
2107,0.000187,0.000178,-9e-06,-4.77,8
2108,0.000277,0.000284,8e-06,2.77,8
2109,0.000333,0.000325,-8e-06,-2.36,8
2110,0.000319,0.000334,1.5e-05,4.78,8
2111,0.000195,0.00019,-5e-06,-2.76,8
2112,0.000296,0.000314,1.9e-05,6.31,8
2113,0.000405,0.000388,-1.7e-05,-4.18,8
2114,0.000338,0.000349,1e-05,3.1,8
2115,0.000396,0.000403,7e-06,1.65,8
2116,0.000315,0.000319,3e-06,1.01,8
2117,0.000191,0.000186,-6e-06,-2.89,8
2118,0.000253,0.000269,1.6e-05,6.31,8
2119,0.000342,0.000345,3e-06,0.95,8
2120,0.00031,0.000318,8e-06,2.73,8
2121,0.000248,0.000247,-2e-06,-0.62,8
2122,0.000271,0.000273,1e-06,0.52,8
2123,0.00033,0.000328,-2e-06,-0.65,8
2124,0.000184,0.000173,-1.1e-05,-5.87,8
2125,0.000312,0.000302,-1e-05,-3.27,8
2126,0.000356,0.000348,-8e-06,-2.15,8
2127,0.000304,0.0003,-4e-06,-1.39,8
2128,0.000251,0.000258,7e-06,2.75,8
2129,0.000156,0.000144,-1.2e-05,-7.9,8
2130,0.000338,0.000355,1.7e-05,4.88,8
2131,0.000475,0.000485,1e-05,2.07,8
2132,0.000215,0.000195,-2e-05,-9.33,8
2133,0.000191,0.000186,-5e-06,-2.72,8
2134,0.00033,0.000324,-6e-06,-1.88,8
2135,0.000368,0.000357,-1.1e-05,-2.99,8
2136,0.000299,0.000289,-1e-05,-3.35,8
2137,0.000405,0.000396,-9e-06,-2.15,8
2138,0.000338,0.000356,1.8e-05,5.33,8
2139,0.000337,0.000336,-1e-06,-0.32,8
2140,0.000315,0.000321,6e-06,1.85,8
2141,0.000191,0.000187,-4e-06,-2.04,8
2142,0.000253,0.000269,1.6e-05,6.47,8
2143,0.000368,0.000362,-6e-06,-1.67,8
2144,0.00031,0.000317,7e-06,2.32,8
2145,0.000215,0.000204,-1e-05,-4.86,8
2146,0.000329,0.000308,-2.1e-05,-6.27,8
2147,0.000421,0.000414,-6e-06,-1.53,8
2148,0.000242,0.000252,1e-05,4.04,8
2149,0.000269,0.000245,-2.4e-05,-8.91,8
2150,0.000232,0.000223,-9e-06,-3.72,8
2151,0.00043,0.00041,-2e-05,-4.6,8
2152,0.000251,0.000258,7e-06,2.62,8
2153,0.000156,0.000144,-1.2e-05,-7.43,8
2154,0.000357,0.000357,-0.0,-0.04,8
2155,0.000187,0.000179,-8e-06,-4.24,8
2156,0.00032,0.000325,5e-06,1.57,8
2157,0.000269,0.00025,-1.9e-05,-7.16,8
2158,0.000232,0.000225,-6e-06,-2.73,8
2159,0.000304,0.000307,3e-06,1.02,8
2160,0.000315,0.000327,1.2e-05,3.92,8
2161,0.000304,0.000306,2e-06,0.69,8
2162,0.000253,0.000262,1e-05,3.85,8
2163,0.000475,0.000484,9e-06,1.82,8
2164,0.00032,0.000328,8e-06,2.52,8
2165,0.000333,0.000328,-5e-06,-1.52,8
2166,0.000259,0.000262,4e-06,1.43,8
2167,0.000252,0.000233,-2e-05,-7.77,8
2168,0.00031,0.000316,6e-06,2.02,8
2169,0.000439,0.000408,-3.1e-05,-7.15,8
2170,0.000267,0.00029,2.4e-05,8.87,8
2171,0.000286,0.000302,1.5e-05,5.25,8
2172,0.000315,0.000322,7e-06,2.21,8
2173,0.000191,0.000189,-2e-06,-1.16,8
2174,0.00033,0.000342,1.2e-05,3.51,8
2175,0.000342,0.00035,8e-06,2.33,8
2176,0.000299,0.00029,-9e-06,-3.02,8
2177,0.000405,0.000403,-2e-06,-0.39,8
2178,0.000253,0.000262,9e-06,3.73,8
2179,0.000286,0.000301,1.5e-05,5.21,8
2180,0.000267,0.000258,-9e-06,-3.27,8
2181,0.000259,0.000249,-1e-05,-3.69,8
2182,0.00033,0.000348,1.8e-05,5.39,8
2183,0.000252,0.000234,-1.8e-05,-7.19,8
2184,0.000296,0.000316,2.1e-05,6.97,8
2185,0.000215,0.000203,-1.2e-05,-5.7,8
2186,0.000357,0.000359,2e-06,0.56,8
2187,0.000286,0.000301,1.5e-05,5.19,8
2188,0.000267,0.000261,-6e-06,-2.39,8
2189,0.000203,0.000178,-2.5e-05,-12.11,8
2190,0.000358,0.00035,-8e-06,-2.16,8
2191,0.000342,0.000353,1.1e-05,3.24,8
2192,0.000374,0.000386,1.1e-05,3.05,8
2193,0.000304,0.000309,4e-06,1.39,8
2194,0.000352,0.000343,-8e-06,-2.29,8
2195,0.000265,0.000267,3e-06,1.05,8
2196,0.00014,0.000124,-1.5e-05,-10.8,8
2197,0.000333,0.000331,-1e-06,-0.41,8
2198,0.000253,0.00027,1.7e-05,6.83,8
2199,0.000249,0.000278,2.8e-05,11.34,8
2200,0.000429,0.000432,3e-06,0.62,8
2201,0.000405,0.000407,2e-06,0.57,8
2202,0.000338,0.000358,2e-05,5.95,8
2203,0.000187,0.000179,-7e-06,-3.96,8
2204,0.000215,0.000195,-2e-05,-9.18,8
2205,0.000255,0.000259,4e-06,1.64,8
2206,0.000259,0.000264,5e-06,1.99,8
2207,0.000304,0.000312,9e-06,2.82,8
2208,0.000299,0.000291,-8e-06,-2.6,8
2209,0.000156,0.000145,-1.1e-05,-6.93,8
2210,0.000359,0.000353,-6e-06,-1.58,8
2211,0.000187,0.00018,-7e-06,-3.77,8
2212,0.00014,0.000125,-1.5e-05,-10.47,8
2213,0.000154,0.000153,-2e-06,-0.98,8
2214,0.000379,0.000344,-3.5e-05,-9.17,8
2215,0.000195,0.000189,-6e-06,-3.22,8
2216,0.000296,0.000316,2.1e-05,7.05,8
2217,0.000291,0.0003,1e-05,3.35,8
2218,0.000357,0.00036,3e-06,0.83,8
2219,0.00033,0.000328,-2e-06,-0.56,8
2220,0.000312,0.000297,-1.4e-05,-4.57,8
2221,0.000348,0.000336,-1.2e-05,-3.5,8
2222,0.000347,0.000343,-4e-06,-1.28,8
2223,0.000417,0.00041,-8e-06,-1.83,8
2224,0.000251,0.000259,8e-06,3.13,8
2225,0.000237,0.000247,1e-05,4.32,8
2226,0.000153,0.000144,-8e-06,-5.41,8
2227,0.000349,0.000353,5e-06,1.39,8
2228,0.000312,0.000314,2e-06,0.61,8
2229,0.000312,0.00031,-2e-06,-0.65,8
2230,0.000253,0.000271,1.8e-05,7.3,8
2231,0.000342,0.000355,1.3e-05,3.92,8
2232,0.000299,0.000291,-7e-06,-2.43,8
2233,0.000439,0.000425,-1.4e-05,-3.21,8
2234,0.000153,0.000144,-9e-06,-5.63,8
2235,0.000421,0.00042,-1e-06,-0.2,8
2236,0.000267,0.000261,-6e-06,-2.14,8
2237,0.000255,0.00026,5e-06,1.96,8
2238,0.000198,0.000196,-2e-06,-0.94,8
2239,0.000407,0.000424,1.6e-05,4.04,8
2240,0.000228,0.000224,-4e-06,-1.63,8
2241,0.000302,0.000279,-2.3e-05,-7.5,8
2242,0.000271,0.000275,3e-06,1.2,8
2243,0.000187,0.00018,-7e-06,-3.68,8
2244,0.000267,0.000263,-4e-06,-1.61,8
2245,0.000191,0.000192,1e-06,0.27,8
2246,0.000253,0.000272,1.9e-05,7.53,8
2247,0.000368,0.000367,-1e-06,-0.39,8
2248,0.00031,0.000314,4e-06,1.39,8
2249,0.000326,0.00033,5e-06,1.44,8
2250,0.000212,0.000186,-2.6e-05,-12.26,8
2251,0.000337,0.000335,-2e-06,-0.49,8
2252,0.000312,0.000311,-1e-06,-0.25,8
2253,0.000269,0.000254,-1.6e-05,-5.87,8
2254,0.000198,0.000194,-4e-06,-2.15,8
2255,0.000304,0.000316,1.2e-05,4.02,8
2256,0.000125,0.000105,-2e-05,-16.33,8
2257,0.000302,0.00028,-2.1e-05,-7.02,8
2258,0.000338,0.000359,2.1e-05,6.19,8
2259,0.000256,0.00025,-5e-06,-2.14,8
2260,0.000289,0.000279,-1e-05,-3.54,8
2261,0.000306,0.000312,6e-06,2.03,8
2262,0.000256,0.000261,6e-06,2.29,8
2263,0.000281,0.000284,4e-06,1.26,8
2264,0.000228,0.000227,-0.0,-0.19,8
2265,0.000215,0.0002,-1.5e-05,-6.86,8
2266,0.000153,0.000143,-1e-05,-6.57,8
2267,0.000396,0.000409,1.3e-05,3.36,8
2268,0.000315,0.000325,1e-05,3.08,8
2269,0.000306,0.000315,9e-06,3.1,8
2270,0.000379,0.000362,-1.7e-05,-4.41,8
2271,0.000281,0.000285,4e-06,1.39,8
2272,0.000396,0.00037,-2.6e-05,-6.51,8
2273,0.00043,0.000445,1.5e-05,3.6,8
2274,0.000318,0.000328,1e-05,3.28,8
2275,0.00033,0.000328,-2e-06,-0.48,8
2276,0.000242,0.00025,8e-06,3.13,8
2277,0.000255,0.000263,8e-06,3.09,8
2278,0.000232,0.000226,-5e-06,-2.36,8
2279,0.00043,0.000422,-7e-06,-1.74,8
2280,0.000228,0.00023,2e-06,0.95,8
2281,0.000439,0.000433,-6e-06,-1.44,8
2282,0.000352,0.000346,-5e-06,-1.44,8
2283,0.000349,0.000356,8e-06,2.2,8
2284,0.000315,0.000326,1.1e-05,3.43,8
2285,0.000255,0.000263,8e-06,3.09,8
2286,0.000186,0.000174,-1.2e-05,-6.55,8
2287,0.00038,0.000384,3e-06,0.92,8
2288,0.000296,0.000318,2.2e-05,7.43,8
2289,0.000302,0.000282,-1.9e-05,-6.44,8
2290,0.000329,0.00031,-1.9e-05,-5.74,8
2291,0.000421,0.000427,7e-06,1.58,8
2292,0.000277,0.000283,6e-06,2.26,8
2293,0.000387,0.000404,1.7e-05,4.41,8
2294,0.000259,0.000265,7e-06,2.59,8
2295,0.00038,0.000385,5e-06,1.32,8
2296,0.000228,0.000231,4e-06,1.64,8
2297,0.000291,0.000302,1.1e-05,3.76,8
2298,0.000352,0.000349,-2e-06,-0.61,8
2299,0.000396,0.000409,1.3e-05,3.31,8
2300,0.000312,0.000309,-2e-06,-0.77,8
2301,0.000269,0.000257,-1.3e-05,-4.75,8
2302,0.000198,0.000192,-6e-06,-3.04,8
2303,0.00038,0.000385,5e-06,1.26,8
2304,0.000251,0.000258,7e-06,2.98,8
2305,0.000237,0.000243,6e-06,2.47,8
2306,0.000359,0.000355,-3e-06,-0.91,8
2307,0.000475,0.000485,1e-05,2.04,8
2308,0.000215,0.000195,-2e-05,-9.39,8
2309,0.000154,0.000153,-2e-06,-1.01,8
2310,0.000232,0.000227,-5e-06,-2.01,8
2311,0.000407,0.000423,1.6e-05,3.82,8
2312,0.00031,0.000313,3e-06,1.11,8
2313,0.000215,0.000199,-1.6e-05,-7.48,8
2314,0.000318,0.000328,1.1e-05,3.32,8
2315,0.000349,0.000358,9e-06,2.61,8
2316,0.000289,0.000279,-1e-05,-3.47,8
2317,0.000191,0.000191,-0.0,-0.11,8
2318,0.000198,0.000192,-7e-06,-3.39,8
2319,0.000252,0.000235,-1.8e-05,-7.08,8
2320,0.000285,0.000274,-1.1e-05,-3.86,8
2321,0.000291,0.000302,1.1e-05,3.87,8
2322,0.000329,0.000313,-1.6e-05,-4.81,8
2323,0.000475,0.000484,9e-06,1.94,8
2324,0.000277,0.000282,5e-06,1.84,8
2325,0.000259,0.000253,-6e-06,-2.29,8
2326,0.000256,0.000261,5e-06,2.13,8
2327,0.000249,0.000279,3e-05,12.09,8
2328,0.00031,0.000312,3e-06,0.94,8
2329,0.000248,0.000252,4e-06,1.64,8
2330,0.000212,0.000187,-2.4e-05,-11.48,8
2331,0.000337,0.000336,-1e-06,-0.23,8
2332,0.00032,0.000327,7e-06,2.16,8
2333,0.000348,0.000342,-6e-06,-1.8,8
2334,0.000256,0.000261,5e-06,2.05,8
2335,0.0003,0.00031,1e-05,3.25,8
2336,0.000299,0.000292,-7e-06,-2.28,8
2337,0.000304,0.000312,7e-06,2.4,8
2338,0.000153,0.000142,-1.1e-05,-7.02,8
2339,0.000256,0.000248,-8e-06,-3.11,8
2340,0.00014,0.000124,-1.5e-05,-10.81,8
2341,0.000203,0.000179,-2.4e-05,-12.0,8
2342,0.000358,0.000352,-6e-06,-1.62,8
2343,0.000252,0.000236,-1.7e-05,-6.67,8
2344,0.000125,0.000105,-2e-05,-15.7,8
2345,0.000215,0.000198,-1.7e-05,-7.89,8
2346,0.000267,0.000286,1.9e-05,7.29,8
2347,0.000265,0.000265,-0.0,-0.04,8
2348,0.000267,0.000264,-3e-06,-1.02,8
2349,0.000203,0.000179,-2.4e-05,-11.73,8
2350,0.000232,0.000227,-5e-06,-2.02,8
2351,0.0003,0.00031,1e-05,3.44,8
2352,0.000396,0.000371,-2.5e-05,-6.22,8
2353,0.000237,0.000242,5e-06,1.93,8
2354,0.000267,0.000284,1.7e-05,6.39,8
2355,0.000364,0.000369,6e-06,1.6,8
2356,0.000312,0.0003,-1.1e-05,-3.67,8
2357,0.000255,0.000264,9e-06,3.44,8
2358,0.00033,0.000347,1.7e-05,5.24,8
2359,0.000252,0.000236,-1.6e-05,-6.39,8
2360,0.000125,0.000105,-1.9e-05,-15.57,8
2361,0.000237,0.000242,4e-06,1.86,8
2362,0.000249,0.00025,1e-06,0.49,8
2363,0.000475,0.000484,9e-06,1.84,8
2364,0.000215,0.000195,-2e-05,-9.15,8
2365,0.000191,0.000193,2e-06,0.85,8
2366,0.00033,0.00035,2e-05,6.05,8
2367,0.000304,0.000323,1.9e-05,6.17,8
2368,0.000228,0.000232,4e-06,1.94,8
2369,0.000304,0.000304,0.0,0.07,8
2370,0.000249,0.000251,2e-06,0.7,8
2371,0.000396,0.000409,1.3e-05,3.21,8
2372,0.000242,0.000248,6e-06,2.39,8
2373,0.000191,0.000193,2e-06,0.83,8
2374,0.00033,0.000352,2.2e-05,6.74,8
2375,0.0003,0.00031,1e-05,3.45,8
2376,0.000374,0.000389,1.5e-05,3.91,8
2377,0.000326,0.000332,6e-06,1.95,8
2378,0.000338,0.00036,2.2e-05,6.52,8
2379,0.000364,0.00037,6e-06,1.67,8
2380,0.000184,0.000176,-8e-06,-4.42,8
2381,0.000259,0.000254,-5e-06,-1.91,8
2382,0.000232,0.000227,-5e-06,-1.96,8
2383,0.000252,0.000237,-1.6e-05,-6.15,8
2384,0.000125,0.000106,-1.9e-05,-15.45,8
2385,0.000156,0.000148,-8e-06,-5.31,8
2386,0.000153,0.000142,-1e-05,-6.77,8
2387,0.000286,0.000303,1.6e-05,5.66,8
2388,0.000312,0.000308,-4e-06,-1.23,8
2389,0.000259,0.000255,-4e-06,-1.72,8
2390,0.000379,0.000375,-4e-06,-0.97,8
2391,0.000304,0.000325,2.1e-05,6.9,8
2392,0.000429,0.000436,7e-06,1.58,8
2393,0.000215,0.000198,-1.7e-05,-8.04,8
2394,0.000253,0.000263,1e-05,3.96,8
2395,0.000349,0.000358,1e-05,2.81,8
2396,0.00014,0.000125,-1.4e-05,-10.14,8
2397,0.000191,0.000194,3e-06,1.51,8
2398,0.000232,0.000227,-5e-06,-2.02,8
2399,0.000407,0.000425,1.8e-05,4.35,8
2400,0.000273,0.000259,-1.4e-05,-5.1,16
2401,0.000321,0.000298,-2.3e-05,-7.22,16
2402,0.00032,0.000285,-3.5e-05,-10.92,16
2403,0.000303,0.000287,-1.7e-05,-5.46,16
2404,0.000161,0.000174,1.3e-05,8.33,16
2405,0.000251,0.000226,-2.5e-05,-9.87,16
2406,0.000123,0.00011,-1.3e-05,-10.5,16
2407,0.000279,0.000308,2.9e-05,10.51,16
2408,0.000387,0.000369,-1.8e-05,-4.69,16
2409,0.000281,0.000288,7e-06,2.56,16
2410,0.000254,0.00022,-3.3e-05,-13.14,16
2411,0.000297,0.000325,2.9e-05,9.61,16
2412,0.000174,0.000206,3.2e-05,18.35,16
2413,0.000404,0.000347,-5.7e-05,-14.17,16
2414,0.000115,0.000132,1.7e-05,14.62,16
2415,0.000396,0.000363,-3.3e-05,-8.36,16
2416,0.00022,0.000226,5e-06,2.43,16
2417,0.000331,0.000327,-4e-06,-1.29,16
2418,0.000247,0.000246,-2e-06,-0.74,16
2419,9e-05,7.7e-05,-1.3e-05,-14.84,16
2420,0.000268,0.00025,-1.8e-05,-6.82,16
2421,0.000178,0.000201,2.3e-05,13.11,16
2422,0.000228,0.000272,4.4e-05,19.13,16
2423,0.000401,0.00037,-3e-05,-7.59,16
2424,0.000448,0.000374,-7.4e-05,-16.57,16
2425,0.000321,0.00032,-1e-06,-0.23,16
2426,0.000254,0.000235,-1.9e-05,-7.45,16
2427,0.000436,0.000386,-4.9e-05,-11.33,16
2428,0.000295,0.000307,1.2e-05,3.97,16
2429,0.000329,0.000283,-4.6e-05,-14.08,16
2430,0.00027,0.000251,-1.9e-05,-6.88,16
2431,0.000307,0.000267,-4e-05,-13.03,16
2432,0.000273,0.000271,-2e-06,-0.89,16
2433,0.000254,0.000257,3e-06,1.2,16
2434,0.00032,0.000302,-1.8e-05,-5.48,16
2435,0.000306,0.000305,-1e-06,-0.48,16
2436,0.000268,0.000252,-1.6e-05,-6.12,16
2437,0.000161,0.000153,-8e-06,-4.89,16
2438,0.000316,0.000265,-5.1e-05,-16.15,16
2439,0.000307,0.000284,-2.3e-05,-7.47,16
2440,0.000326,0.000327,1e-06,0.16,16
2441,0.000254,0.000255,1e-06,0.28,16
2442,0.000303,0.000299,-4e-06,-1.31,16
2443,0.000436,0.000413,-2.3e-05,-5.28,16
2444,0.000303,0.000279,-2.5e-05,-8.13,16
2445,0.000251,0.000249,-2e-06,-0.68,16
2446,0.000228,0.000251,2.3e-05,10.18,16
2447,0.000299,0.000277,-2.2e-05,-7.24,16
2448,0.000448,0.000427,-2.1e-05,-4.67,16
2449,0.000252,0.000294,4.3e-05,16.98,16
2450,0.000279,0.000229,-5e-05,-17.77,16
2451,0.000286,0.000282,-4e-06,-1.39,16
2452,0.00027,0.000262,-7e-06,-2.7,16
2453,0.000323,0.000305,-1.8e-05,-5.58,16
2454,0.000123,0.000112,-1.1e-05,-9.1,16
2455,0.000396,0.000351,-4.5e-05,-11.28,16
2456,0.0002,0.000199,-1e-06,-0.39,16
2457,0.000125,0.000112,-1.2e-05,-9.76,16
2458,0.000303,0.000284,-1.9e-05,-6.37,16
2459,0.000113,0.000107,-6e-06,-5.65,16
2460,0.000132,0.000119,-1.3e-05,-9.51,16
2461,0.000297,0.000271,-2.6e-05,-8.79,16
2462,0.000322,0.000296,-2.5e-05,-7.92,16
2463,0.000323,0.000277,-4.6e-05,-14.19,16
2464,0.00034,0.000318,-2.2e-05,-6.36,16
2465,0.000281,0.000273,-8e-06,-2.94,16
2466,0.000279,0.00025,-2.9e-05,-10.46,16
2467,0.000198,0.000162,-3.6e-05,-18.11,16
2468,0.000268,0.000243,-2.5e-05,-9.24,16
2469,0.000323,0.000305,-1.8e-05,-5.56,16
2470,0.000316,0.000279,-3.7e-05,-11.75,16
2471,0.000396,0.000372,-2.4e-05,-5.95,16
2472,0.000326,0.00032,-6e-06,-1.85,16
2473,0.000269,0.000222,-4.7e-05,-17.5,16
2474,0.000279,0.000257,-2.2e-05,-7.81,16
2475,0.000286,0.000279,-7e-06,-2.54,16
2476,0.000196,0.000197,1e-06,0.56,16
2477,0.000323,0.000306,-1.7e-05,-5.35,16
2478,0.000228,0.000243,1.5e-05,6.5,16
2479,0.00013,0.000122,-8e-06,-6.06,16
2480,0.0002,0.000195,-5e-06,-2.36,16
2481,0.000275,0.000244,-3.1e-05,-11.32,16
2482,0.000247,0.000239,-9e-06,-3.56,16
2483,0.000306,0.000303,-4e-06,-1.17,16
2484,0.000303,0.000298,-6e-06,-1.84,16
2485,0.000296,0.000272,-2.4e-05,-8.25,16
2486,0.000347,0.000318,-2.8e-05,-8.15,16
2487,0.000323,0.000297,-2.6e-05,-7.92,16
2488,0.0002,0.0002,0.0,0.14,16
2489,0.000321,0.000323,2e-06,0.61,16
2490,0.000247,0.000242,-5e-06,-2.1,16
2491,0.000303,0.000289,-1.4e-05,-4.75,16
2492,0.000303,0.000298,-5e-06,-1.7,16
2493,0.000178,0.000176,-1e-06,-0.75,16
2494,0.000228,0.000237,9e-06,4.08,16
2495,0.000279,0.000281,3e-06,0.97,16
2496,0.000448,0.00044,-9e-06,-1.9,16
2497,0.000254,0.000251,-3e-06,-1.28,16
2498,0.000129,0.000116,-1.3e-05,-9.86,16
2499,0.000442,0.000391,-5.1e-05,-11.5,16
2500,0.000303,0.000299,-4e-06,-1.27,16
2501,0.000422,0.000412,-1e-05,-2.44,16
2502,0.000115,0.000104,-1.1e-05,-9.66,16
2503,0.00013,0.000125,-5e-06,-3.63,16
2504,0.00022,0.000212,-8e-06,-3.83,16
2505,0.000331,0.000335,3e-06,1.03,16
2506,0.00032,0.000307,-1.3e-05,-4.08,16
2507,0.000303,0.0003,-4e-06,-1.3,16
2508,0.000268,0.000246,-2.1e-05,-8.01,16
2509,0.000161,0.000146,-1.5e-05,-9.23,16
2510,0.000328,0.000289,-3.9e-05,-11.91,16
2511,0.000237,0.000251,1.4e-05,5.97,16
2512,0.00034,0.000353,1.3e-05,3.79,16
2513,0.000249,0.000228,-2.1e-05,-8.47,16
2514,0.00032,0.000307,-1.2e-05,-3.83,16
2515,0.000306,0.000301,-5e-06,-1.7,16
2516,0.000295,0.000288,-7e-06,-2.27,16
2517,0.000251,0.000254,4e-06,1.52,16
2518,0.000322,0.000307,-1.4e-05,-4.5,16
2519,0.000277,0.000287,1e-05,3.62,16
2520,0.000387,0.00036,-2.7e-05,-6.96,16
2521,0.000171,0.000155,-1.5e-05,-8.93,16
2522,0.000316,0.000311,-4e-06,-1.38,16
2523,0.000297,0.000297,0.0,0.03,16
2524,0.000161,0.000144,-1.7e-05,-10.71,16
2525,0.000251,0.000256,6e-06,2.25,16
2526,0.000312,0.000332,2e-05,6.38,16
2527,0.000299,0.000281,-1.8e-05,-6.13,16
2528,0.000273,0.000277,4e-06,1.55,16
2529,0.000171,0.000155,-1.6e-05,-9.17,16
2530,0.000247,0.000245,-2e-06,-0.86,16
2531,0.000198,0.000176,-2.2e-05,-11.11,16
2532,0.000268,0.000245,-2.3e-05,-8.68,16
2533,0.000178,0.000177,-1e-06,-0.48,16
2534,0.000115,0.000105,-1e-05,-8.96,16
2535,0.000277,0.000285,9e-06,3.12,16
2536,0.000398,0.000344,-5.4e-05,-13.5,16
2537,0.000254,0.000249,-5e-06,-1.95,16
2538,0.000325,0.000319,-6e-06,-1.86,16
2539,0.00031,0.000295,-1.5e-05,-4.71,16
2540,0.000344,0.000336,-8e-06,-2.36,16
2541,0.000315,0.000308,-7e-06,-2.12,16
2542,0.000328,0.000302,-2.6e-05,-7.85,16
2543,0.000237,0.000251,1.4e-05,6.07,16
2544,0.000235,0.000208,-2.7e-05,-11.64,16
2545,0.000125,0.000106,-1.8e-05,-14.79,16
2546,0.000391,0.000402,1.1e-05,2.71,16
2547,9e-05,8.4e-05,-6e-06,-6.65,16
2548,0.00027,0.000265,-5e-06,-1.81,16
2549,0.000376,0.000366,-1e-05,-2.76,16
2550,0.000328,0.000308,-2.1e-05,-6.27,16
2551,0.000323,0.000307,-1.6e-05,-4.98,16
2552,0.000326,0.00032,-6e-06,-1.82,16
2553,0.000275,0.000259,-1.6e-05,-5.82,16
2554,0.00032,0.000309,-1e-05,-3.25,16
2555,0.000198,0.000185,-1.3e-05,-6.53,16
2556,0.000132,0.000115,-1.7e-05,-13.06,16
2557,0.000251,0.000257,7e-06,2.64,16
2558,0.000115,0.000106,-1e-05,-8.46,16
2559,0.000277,0.000284,8e-06,2.82,16
2560,0.000448,0.000447,-1e-06,-0.33,16
2561,0.000281,0.000272,-9e-06,-3.27,16
2562,0.000254,0.00022,-3.3e-05,-13.12,16
2563,0.00031,0.000302,-8e-06,-2.49,16
2564,0.000174,0.000178,4e-06,2.52,16
2565,0.000139,0.000121,-1.7e-05,-12.31,16
2566,0.000328,0.00031,-1.8e-05,-5.63,16
2567,0.000401,0.000405,4e-06,1.03,16
2568,0.00034,0.000324,-1.5e-05,-4.55,16
2569,0.000321,0.000324,2e-06,0.77,16
2570,0.000279,0.000259,-2e-05,-7.01,16
2571,0.00031,0.000306,-4e-06,-1.27,16
2572,0.000268,0.000251,-1.7e-05,-6.51,16
2573,0.000251,0.000257,7e-06,2.73,16
2574,0.000486,0.000473,-1.3e-05,-2.66,16
2575,0.000237,0.000246,9e-06,3.96,16
2576,0.00034,0.000325,-1.4e-05,-4.22,16
2577,0.000252,0.000259,7e-06,2.74,16
2578,0.00032,0.000309,-1.1e-05,-3.42,16
2579,0.000198,0.000187,-1.1e-05,-5.65,16
2580,0.000318,0.000327,9e-06,2.94,16
2581,0.000404,0.000381,-2.3e-05,-5.66,16
2582,0.000312,0.000315,2e-06,0.75,16
2583,0.000163,0.000142,-2.1e-05,-13.07,16
2584,0.000155,0.000126,-2.9e-05,-18.53,16
2585,0.000254,0.000248,-6e-06,-2.18,16
2586,0.000325,0.000319,-5e-06,-1.63,16
2587,0.00031,0.000309,-1e-06,-0.47,16
2588,0.000196,0.000189,-7e-06,-3.56,16
2589,0.000139,0.000118,-2.1e-05,-14.99,16
2590,0.000347,0.000325,-2.2e-05,-6.3,16
2591,0.000299,0.000287,-1.2e-05,-3.91,16
2592,0.000155,0.00013,-2.5e-05,-16.05,16
2593,0.000267,0.000257,-1e-05,-3.87,16
2594,0.000254,0.000229,-2.5e-05,-9.74,16
2595,9e-05,8.4e-05,-6e-06,-6.92,16
2596,0.000268,0.000256,-1.2e-05,-4.64,16
2597,0.000404,0.000389,-1.5e-05,-3.76,16
2598,0.000347,0.000329,-1.8e-05,-5.1,16
2599,0.000401,0.000413,1.2e-05,2.95,16
2600,0.00022,0.000216,-4e-06,-2.04,16
2601,0.000275,0.000261,-1.3e-05,-4.83,16
2602,0.000279,0.000262,-1.7e-05,-5.99,16
2603,0.000315,0.000294,-2e-05,-6.49,16
2604,0.000196,0.000188,-8e-06,-3.91,16
2605,0.000376,0.000367,-9e-06,-2.34,16
2606,0.000259,0.000225,-3.3e-05,-12.9,16
2607,0.000279,0.000279,1e-06,0.29,16
2608,0.00034,0.000325,-1.5e-05,-4.31,16
2609,0.000275,0.000265,-1e-05,-3.58,16
2610,0.000279,0.000264,-1.4e-05,-5.18,16
2611,0.000303,0.000309,5e-06,1.67,16
2612,0.000268,0.00026,-8e-06,-3.08,16
2613,0.000251,0.000256,6e-06,2.3,16
2614,0.000347,0.000329,-1.7e-05,-4.99,16
2615,0.000237,0.000245,8e-06,3.3,16
2616,0.0002,0.000204,4e-06,1.9,16
2617,0.000275,0.000267,-8e-06,-2.75,16
2618,0.00032,0.00031,-1e-05,-3.11,16
2619,0.000315,0.000301,-1.4e-05,-4.39,16
2620,0.000295,0.000287,-8e-06,-2.7,16
2621,0.000323,0.00031,-1.3e-05,-4.05,16
2622,0.000337,0.000302,-3.5e-05,-10.36,16
2623,0.000279,0.000279,0.0,0.18,16
2624,0.0002,0.000205,5e-06,2.32,16
2625,0.000249,0.000238,-1.1e-05,-4.4,16
2626,0.000254,0.000235,-1.8e-05,-7.28,16
2627,0.000315,0.000304,-1.1e-05,-3.38,16
2628,0.000303,0.000296,-7e-06,-2.45,16
2629,0.000422,0.000419,-3e-06,-0.67,16
2630,0.000259,0.000241,-1.8e-05,-6.91,16
2631,0.000307,0.000303,-3e-06,-1.14,16
2632,0.000326,0.000319,-7e-06,-2.08,16
2633,0.000269,0.000257,-1.2e-05,-4.51,16
2634,0.000135,0.000125,-1e-05,-7.46,16
2635,0.000315,0.000305,-1e-05,-3.11,16
2636,0.000161,0.000143,-1.8e-05,-11.0,16
2637,0.000296,0.000282,-1.4e-05,-4.85,16
2638,0.000347,0.000333,-1.4e-05,-3.92,16
2639,0.000277,0.000275,-2e-06,-0.75,16
2640,0.00022,0.000218,-2e-06,-1.08,16
2641,0.000269,0.000267,-2e-06,-0.85,16
2642,0.000135,0.000125,-1e-05,-7.67,16
2643,0.00031,0.000309,-1e-06,-0.27,16
2644,0.000318,0.000318,0.0,0.02,16
2645,0.000329,0.000312,-1.7e-05,-5.25,16
2646,0.000312,0.000312,-0.0,-0.15,16
2647,0.000277,0.000276,-0.0,-0.18,16
2648,0.000387,0.000373,-1.4e-05,-3.59,16
2649,0.000323,0.000316,-7e-06,-2.2,16
2650,0.00032,0.00031,-1e-05,-3.02,16
2651,0.000297,0.000292,-5e-06,-1.7,16
2652,0.000268,0.000264,-5e-06,-1.69,16
2653,0.000422,0.000421,-1e-06,-0.16,16
2654,0.000259,0.000247,-1.2e-05,-4.55,16
2655,0.000396,0.000395,-1e-06,-0.35,16
2656,0.00034,0.000342,2e-06,0.65,16
2657,0.000269,0.000272,4e-06,1.31,16
2658,0.000135,0.000125,-1e-05,-7.36,16
2659,0.000303,0.00031,6e-06,2.05,16
2660,0.000303,0.000297,-6e-06,-2.07,16
2661,0.000178,0.000175,-3e-06,-1.43,16
2662,0.000322,0.000313,-8e-06,-2.61,16
2663,0.000237,0.000244,7e-06,3.04,16
2664,0.000273,0.000279,6e-06,2.05,16
2665,0.000267,0.00026,-7e-06,-2.75,16
2666,0.000129,0.000112,-1.7e-05,-12.9,16
2667,0.000303,0.000311,7e-06,2.38,16
2668,0.00027,0.000268,-1e-06,-0.49,16
2669,0.000161,0.000144,-1.8e-05,-10.92,16
2670,0.000259,0.000249,-9e-06,-3.57,16
2671,0.000163,0.000143,-2e-05,-12.08,16
2672,0.00022,0.000217,-3e-06,-1.41,16
2673,0.000125,0.000108,-1.7e-05,-13.53,16
2674,0.000333,0.000329,-5e-06,-1.48,16
2675,0.000286,0.000277,-9e-06,-3.03,16
2676,0.000132,0.000113,-1.9e-05,-14.11,16
2677,0.000139,0.000116,-2.2e-05,-16.22,16
2678,0.000228,0.00023,1e-06,0.61,16
2679,0.000237,0.000243,6e-06,2.58,16
2680,0.00034,0.000325,-1.4e-05,-4.24,16
2681,0.000323,0.00032,-3e-06,-1.01,16
2682,0.000135,0.000125,-1e-05,-7.62,16
2683,0.00031,0.000311,1e-06,0.18,16
2684,0.000161,0.000142,-1.9e-05,-11.54,16
2685,0.000323,0.000312,-1.1e-05,-3.42,16
2686,0.00027,0.00026,-1e-05,-3.59,16
2687,0.000277,0.000276,-1e-06,-0.27,16
2688,0.00034,0.000326,-1.4e-05,-4.13,16
2689,0.000331,0.000332,0.0,0.14,16
2690,0.000303,0.000283,-2e-05,-6.65,16
2691,0.00031,0.000311,1e-06,0.28,16
2692,0.000196,0.000189,-6e-06,-3.24,16
2693,0.000422,0.000424,2e-06,0.49,16
2694,0.000337,0.000315,-2.2e-05,-6.52,16
2695,0.000396,0.000382,-1.3e-05,-3.38,16
2696,0.00022,0.000217,-3e-06,-1.52,16
2697,0.000323,0.000322,-2e-06,-0.54,16
2698,0.000316,0.000321,5e-06,1.63,16
2699,0.000315,0.000305,-9e-06,-3.0,16
2700,0.000196,0.00019,-6e-06,-2.98,16
2701,0.000404,0.000397,-7e-06,-1.78,16
2702,0.000259,0.00025,-8e-06,-3.14,16
2703,0.000401,0.000417,1.6e-05,4.0,16
2704,0.00022,0.000217,-3e-06,-1.32,16
2705,0.000252,0.000247,-5e-06,-2.02,16
2706,0.000254,0.000244,-1e-05,-3.86,16
2707,0.000286,0.000279,-7e-06,-2.47,16
2708,0.000196,0.00019,-6e-06,-2.95,16
2709,0.000139,0.000115,-2.3e-05,-16.7,16
2710,0.000347,0.000335,-1.1e-05,-3.26,16
2711,0.000408,0.000386,-2.3e-05,-5.59,16
2712,0.00022,0.000217,-3e-06,-1.31,16
2713,0.000267,0.000263,-4e-06,-1.63,16
2714,0.000248,0.000239,-9e-06,-3.67,16
2715,0.000198,0.000188,-1e-05,-4.85,16
2716,0.000196,0.00019,-6e-06,-2.89,16
2717,0.000376,0.000371,-6e-06,-1.5,16
2718,0.000259,0.000251,-8e-06,-2.92,16
2719,0.000396,0.000396,-0.0,-0.08,16
2720,0.0002,0.000206,6e-06,2.94,16
2721,0.000281,0.000276,-5e-06,-1.74,16
2722,0.000135,0.000125,-1e-05,-7.49,16
2723,0.000303,0.000312,9e-06,2.84,16
2724,0.000295,0.00029,-5e-06,-1.61,16
2725,0.000178,0.000175,-2e-06,-1.38,16
2726,0.000316,0.000298,-1.8e-05,-5.71,16
2727,0.000279,0.000282,4e-06,1.36,16
2728,0.000398,0.000376,-2.2e-05,-5.56,16
2729,0.000321,0.000327,6e-06,1.93,16
2730,0.00032,0.000311,-9e-06,-2.87,16
2731,0.000454,0.000416,-3.8e-05,-8.4,16
2732,0.000161,0.000142,-1.8e-05,-11.48,16
2733,0.000329,0.000329,-1e-06,-0.16,16
2734,0.000259,0.000252,-6e-06,-2.36,16
2735,0.000307,0.000302,-5e-06,-1.52,16
2736,0.000273,0.000281,8e-06,2.82,16
2737,0.000171,0.000155,-1.6e-05,-9.39,16
2738,0.000247,0.000248,0.0,0.16,16
2739,0.000436,0.000445,1e-05,2.2,16
2740,0.000235,0.000224,-1.1e-05,-4.65,16
2741,0.000296,0.00029,-7e-06,-2.2,16
2742,0.00027,0.000265,-5e-06,-1.74,16
2743,0.00013,0.000128,-2e-06,-1.56,16
2744,0.000155,0.000132,-2.3e-05,-15.08,16
2745,0.000254,0.000251,-2e-06,-0.97,16
2746,0.000391,0.000397,7e-06,1.67,16
2747,0.000198,0.000191,-7e-06,-3.7,16
2748,0.000235,0.000223,-1.2e-05,-5.22,16
2749,0.000178,0.000176,-1e-06,-0.57,16
2750,0.000328,0.000317,-1.1e-05,-3.5,16
2751,0.00013,0.000128,-2e-06,-1.36,16
2752,0.000155,0.000132,-2.3e-05,-14.98,16
2753,0.000125,0.000109,-1.6e-05,-12.48,16
2754,0.000135,0.000125,-1e-05,-7.43,16
2755,0.000315,0.000307,-8e-06,-2.46,16
2756,0.000303,0.000298,-5e-06,-1.63,16
2757,0.000161,0.000145,-1.7e-05,-10.23,16
2758,0.000259,0.000253,-5e-06,-2.08,16
2759,0.000396,0.000397,1e-06,0.26,16
2760,0.00034,0.000326,-1.3e-05,-3.88,16
2761,0.000331,0.00033,-1e-06,-0.25,16
2762,0.000248,0.000244,-4e-06,-1.8,16
2763,0.00031,0.000311,1e-06,0.37,16
2764,0.00027,0.000269,-1e-06,-0.32,16
2765,0.000329,0.000332,2e-06,0.71,16
2766,0.000322,0.000312,-1e-05,-3.04,16
2767,0.000237,0.000242,6e-06,2.38,16
2768,0.000361,0.000332,-3e-05,-8.23,16
2769,0.000171,0.000156,-1.4e-05,-8.47,16
2770,0.000333,0.000325,-8e-06,-2.4,16
2771,0.000286,0.000281,-5e-06,-1.77,16
2772,0.000303,0.000299,-4e-06,-1.28,16
2773,0.000297,0.000288,-1e-05,-3.26,16
2774,0.000115,0.000106,-1e-05,-8.41,16
2775,0.00013,0.000128,-2e-06,-1.17,16
2776,0.000273,0.000281,8e-06,2.87,16
2777,0.000331,0.000328,-3e-06,-0.98,16
2778,0.000316,0.000321,6e-06,1.86,16
2779,0.000113,0.000108,-5e-06,-4.82,16
2780,0.000132,0.000114,-1.8e-05,-13.6,16
2781,0.000315,0.000317,2e-06,0.52,16
2782,0.000337,0.000322,-1.4e-05,-4.25,16
2783,0.000396,0.000398,2e-06,0.55,16
2784,0.000387,0.000379,-8e-06,-1.98,16
2785,0.000269,0.00028,1.1e-05,4.09,16
2786,0.000316,0.000323,8e-06,2.41,16
2787,0.000198,0.000191,-7e-06,-3.44,16
2788,0.000235,0.000221,-1.4e-05,-6.01,16
2789,0.000296,0.000292,-4e-06,-1.48,16
2790,0.000259,0.000255,-4e-06,-1.53,16
2791,0.000299,0.000295,-3e-06,-1.12,16
2792,0.000235,0.000213,-2.2e-05,-9.44,16
2793,0.000252,0.000246,-5e-06,-2.12,16
2794,0.000303,0.000287,-1.6e-05,-5.29,16
2795,0.000297,0.000293,-4e-06,-1.48,16
2796,0.000268,0.00027,2e-06,0.61,16
2797,0.000139,0.000115,-2.3e-05,-16.64,16
2798,0.000312,0.00031,-2e-06,-0.7,16
2799,0.000277,0.000278,1e-06,0.53,16
2800,0.0002,0.000208,8e-06,3.8,16
2801,0.000281,0.000279,-2e-06,-0.6,16
2802,0.000248,0.000246,-2e-06,-0.74,16
2803,0.000315,0.000309,-6e-06,-1.85,16
2804,0.000268,0.000251,-1.7e-05,-6.3,16
2805,0.000323,0.000314,-9e-06,-2.83,16
2806,0.000486,0.000484,-2e-06,-0.33,16
2807,0.000307,0.000302,-5e-06,-1.54,16
2808,0.000326,0.000318,-8e-06,-2.51,16
2809,0.000331,0.000329,-2e-06,-0.71,16
2810,0.000129,0.000112,-1.7e-05,-13.24,16
2811,0.000306,0.0003,-6e-06,-1.96,16
2812,0.000268,0.000271,3e-06,1.04,16
2813,0.000315,0.000321,6e-06,1.77,16
2814,0.000312,0.000311,-1e-06,-0.45,16
2815,0.000277,0.000278,1e-06,0.38,16
2816,0.000387,0.000381,-6e-06,-1.52,16
2817,0.000331,0.000329,-2e-06,-0.64,16
2818,0.000391,0.000398,7e-06,1.71,16
2819,0.000198,0.000191,-7e-06,-3.68,16
2820,0.000268,0.000251,-1.7e-05,-6.17,16
2821,0.000296,0.000292,-4e-06,-1.48,16
2822,0.000322,0.000312,-1e-05,-3.08,16
2823,0.000307,0.000302,-4e-06,-1.41,16
2824,0.000361,0.000346,-1.5e-05,-4.24,16
2825,0.000269,0.000282,1.3e-05,4.98,16
2826,0.000333,0.000326,-7e-06,-2.18,16
2827,0.000286,0.000282,-4e-06,-1.41,16
2828,0.000344,0.000341,-4e-06,-1.06,16
2829,0.000251,0.000259,8e-06,3.27,16
2830,0.000316,0.000302,-1.4e-05,-4.47,16
2831,0.000279,0.000281,2e-06,0.74,16
2832,0.00034,0.000345,5e-06,1.46,16
2833,0.000321,0.000329,8e-06,2.38,16
2834,0.000129,0.000111,-1.7e-05,-13.4,16
2835,0.000442,0.000437,-5e-06,-1.19,16
2836,0.000196,0.000191,-5e-06,-2.68,16
2837,0.000161,0.000145,-1.6e-05,-10.21,16
2838,0.000123,0.000113,-1e-05,-7.75,16
2839,0.000396,0.000388,-8e-06,-2.07,16
2840,0.00022,0.000218,-2e-06,-1.0,16
2841,0.000321,0.000329,8e-06,2.4,16
2842,0.000254,0.000254,0.0,0.11,16
2843,0.000198,0.000191,-7e-06,-3.74,16
2844,0.000235,0.000221,-1.4e-05,-5.94,16
2845,0.000178,0.000176,-1e-06,-0.75,16
2846,0.00027,0.000266,-4e-06,-1.5,16
2847,0.000299,0.000297,-2e-06,-0.63,16
2848,0.000235,0.000215,-2e-05,-8.53,16
2849,0.000254,0.000251,-3e-06,-1.0,16
2850,0.000325,0.000321,-3e-06,-1.0,16
2851,9e-05,8.7e-05,-3e-06,-3.57,16
2852,0.000161,0.000143,-1.8e-05,-10.93,16
2853,0.000329,0.000338,9e-06,2.63,16
2854,0.000347,0.00034,-7e-06,-1.98,16
2855,0.000408,0.000389,-1.9e-05,-4.71,16
2856,0.000361,0.000348,-1.3e-05,-3.57,16
2857,0.000254,0.000251,-3e-06,-1.04,16
2858,0.000129,0.000111,-1.7e-05,-13.43,16
2859,9e-05,8.7e-05,-3e-06,-3.18,16
2860,0.000174,0.000173,-1e-06,-0.55,16
2861,0.000178,0.000176,-1e-06,-0.75,16
2862,0.000337,0.000328,-8e-06,-2.52,16
2863,0.000163,0.000145,-1.8e-05,-11.15,16
2864,0.000235,0.000217,-1.8e-05,-7.55,16
2865,0.000171,0.000156,-1.5e-05,-8.73,16
2866,0.000247,0.000249,2e-06,0.69,16
2867,0.000436,0.000448,1.2e-05,2.79,16
2868,0.000235,0.00022,-1.5e-05,-6.28,16
2869,0.000139,0.000115,-2.4e-05,-17.17,16
2870,0.000312,0.000309,-3e-06,-0.97,16
2871,0.000277,0.000278,1e-06,0.35,16
2872,0.000155,0.000133,-2.2e-05,-14.21,16
2873,0.000275,0.000275,0.0,0.07,16
2874,0.000325,0.000322,-3e-06,-0.91,16
2875,0.000198,0.00019,-8e-06,-3.93,16
2876,0.000268,0.000252,-1.6e-05,-6.06,16
2877,0.000251,0.000259,8e-06,3.25,16
2878,0.00027,0.000266,-4e-06,-1.31,16
2879,0.000299,0.000298,-1e-06,-0.26,16
2880,0.0002,0.000209,9e-06,4.43,16
2881,0.000171,0.000156,-1.5e-05,-8.69,16
2882,0.000279,0.000274,-5e-06,-1.63,16
2883,0.000303,0.000313,9e-06,3.07,16
2884,0.000174,0.000173,-1e-06,-0.46,16
2885,0.000161,0.000145,-1.6e-05,-9.97,16
2886,0.00027,0.000267,-3e-06,-1.24,16
2887,0.000307,0.000301,-5e-06,-1.7,16
2888,0.000398,0.000378,-2e-05,-4.95,16
2889,0.000171,0.000156,-1.5e-05,-8.7,16
2890,0.000254,0.000256,2e-06,0.87,16
2891,0.000306,0.000302,-4e-06,-1.43,16
2892,0.000318,0.000325,7e-06,2.23,16
2893,0.000251,0.000259,8e-06,3.3,16
2894,0.00027,0.000267,-3e-06,-1.12,16
2895,0.000279,0.000278,-0.0,-0.1,16
2896,0.0002,0.000209,9e-06,4.55,16
2897,0.000171,0.000156,-1.5e-05,-8.75,16
2898,0.000247,0.00025,2e-06,0.87,16
2899,0.000303,0.000313,1e-05,3.15,16
2900,0.000268,0.000272,4e-06,1.55,16
2901,0.000139,0.000115,-2.4e-05,-17.33,16
2902,0.000328,0.00032,-8e-06,-2.52,16
2903,0.000323,0.000319,-4e-06,-1.12,16
2904,0.00034,0.000345,5e-06,1.6,16
2905,0.000252,0.000247,-4e-06,-1.78,16
2906,0.000279,0.000275,-3e-06,-1.22,16
2907,0.000198,0.000191,-7e-06,-3.69,16
2908,0.000196,0.00019,-5e-06,-2.71,16
2909,0.000329,0.000339,9e-06,2.85,16
2910,0.000123,0.000114,-9e-06,-7.15,16
2911,0.000279,0.000278,-0.0,-0.15,16
2912,0.000387,0.000383,-4e-06,-0.98,16
2913,0.000275,0.000277,2e-06,0.66,16
2914,0.000248,0.000248,0.0,0.05,16
2915,0.000286,0.000283,-3e-06,-1.18,16
2916,0.000303,0.0003,-3e-06,-0.93,16
2917,0.000315,0.000322,7e-06,2.32,16
2918,0.000316,0.000306,-9e-06,-2.94,16
2919,0.000401,0.000421,2.1e-05,5.14,16
2920,0.00034,0.000328,-1.2e-05,-3.43,16
2921,0.000267,0.000264,-3e-06,-1.13,16
2922,0.000333,0.000327,-7e-06,-2.0,16
2923,0.000198,0.000191,-7e-06,-3.52,16
2924,0.00027,0.000272,2e-06,0.8,16
2925,0.000296,0.000295,-1e-06,-0.38,16
2926,0.000322,0.000315,-7e-06,-2.25,16
2927,0.000163,0.000145,-1.8e-05,-10.75,16
2928,0.000326,0.000318,-8e-06,-2.54,16
2929,0.000269,0.000284,1.5e-05,5.51,16
2930,0.000279,0.000277,-2e-06,-0.83,16
2931,0.000198,0.000191,-7e-06,-3.5,16
2932,0.000174,0.000172,-2e-06,-0.94,16
2933,0.000297,0.000293,-4e-06,-1.47,16
2934,0.000228,0.000226,-2e-06,-1.08,16
2935,0.000279,0.000279,0.0,0.01,16
2936,0.00022,0.000219,-2e-06,-0.72,16
2937,0.000254,0.000251,-3e-06,-1.09,16
2938,0.000279,0.000277,-2e-06,-0.71,16
2939,0.000297,0.000292,-5e-06,-1.69,16
2940,0.000295,0.000293,-2e-06,-0.71,16
2941,0.000323,0.000313,-1e-05,-3.21,16
2942,0.000486,0.000488,3e-06,0.59,16
2943,0.000408,0.000395,-1.4e-05,-3.36,16
2944,0.000155,0.000134,-2.2e-05,-13.94,16
2945,0.000321,0.000329,8e-06,2.45,16
2946,0.000247,0.000249,2e-06,0.74,16
2947,0.000297,0.000292,-5e-06,-1.71,16
2948,0.000235,0.000219,-1.6e-05,-6.77,16
2949,0.000251,0.00026,9e-06,3.57,16
2950,0.000328,0.000322,-6e-06,-1.93,16
2951,0.000396,0.0004,5e-06,1.15,16
2952,0.000361,0.00035,-1.1e-05,-3.03,16
2953,0.000249,0.000246,-3e-06,-1.02,16
2954,0.000316,0.000327,1.1e-05,3.48,16
2955,0.000454,0.00045,-4e-06,-0.78,16
2956,0.000268,0.000252,-1.6e-05,-5.83,16
2957,0.000139,0.000114,-2.4e-05,-17.61,16
2958,0.000123,0.000114,-9e-06,-6.97,16
2959,0.000277,0.000277,1e-06,0.2,16
2960,0.000155,0.000134,-2.1e-05,-13.8,16
2961,0.000275,0.000277,2e-06,0.66,16
2962,0.000135,0.000126,-9e-06,-6.95,16
2963,0.00031,0.000314,4e-06,1.3,16
2964,0.000344,0.000342,-3e-06,-0.83,16
2965,0.000422,0.00043,8e-06,1.88,16
2966,0.000228,0.000225,-3e-06,-1.18,16
2967,0.000307,0.000302,-4e-06,-1.37,16
2968,0.000326,0.000318,-8e-06,-2.53,16
2969,0.000323,0.000325,1e-06,0.35,16
2970,0.000325,0.000322,-3e-06,-0.81,16
2971,0.000198,0.000191,-7e-06,-3.42,16
2972,0.000318,0.000327,8e-06,2.64,16
2973,0.000404,0.000403,-2e-06,-0.4,16
2974,0.000123,0.000114,-9e-06,-6.94,16
2975,0.000298,0.000298,-0.0,-0.1,16
2976,0.000235,0.000218,-1.7e-05,-7.29,16
2977,0.000267,0.000265,-2e-06,-0.85,16
2978,0.000254,0.00026,7e-06,2.64,16
2979,0.000442,0.000453,1.1e-05,2.5,16
2980,0.000174,0.000171,-2e-06,-1.39,16
2981,0.000376,0.000367,-9e-06,-2.38,16
2982,0.000259,0.000258,-0.0,-0.16,16
2983,0.000163,0.000146,-1.7e-05,-10.54,16
2984,0.0002,0.00021,1e-05,5.04,16
2985,0.000275,0.000277,2e-06,0.84,16
2986,0.000247,0.00025,2e-06,0.9,16
2987,0.000113,0.000107,-6e-06,-5.49,16
2988,0.000174,0.000171,-2e-06,-1.32,16
2989,0.000297,0.000294,-4e-06,-1.25,16
2990,0.000347,0.000341,-5e-06,-1.48,16
2991,0.000237,0.00024,3e-06,1.31,16
2992,0.000398,0.000382,-1.6e-05,-4.1,16
2993,0.000323,0.000325,2e-06,0.5,16
2994,0.000248,0.000249,1e-06,0.3,16
2995,9e-05,8.8e-05,-2e-06,-2.58,16
2996,0.000174,0.000171,-2e-06,-1.37,16
2997,0.000251,0.000259,8e-06,3.37,16
2998,0.000115,0.000107,-9e-06,-7.49,16
2999,0.000307,0.000302,-4e-06,-1.4,16
