kernel_id,importance_mean,importance_std,dilation
0,0.000226,0.00016,1
1,0.000153,7.8e-05,1
2,0.000212,0.000122,1
3,0.000236,0.000206,1
4,0.000247,0.000193,1
5,0.000288,0.000259,1
6,0.000224,0.000217,1
7,0.000281,0.00022,1
8,0.000192,0.000118,1
9,0.000276,0.000243,1
10,0.000207,0.000137,1
11,0.000234,0.000211,1
12,0.00024,0.000172,1
13,0.000198,7.6e-05,1
14,0.000273,0.000234,1
15,0.000344,0.000341,1
16,0.000202,0.00017,1
17,0.000198,0.000157,1
18,0.000267,0.000214,1
19,0.000396,0.000396,1
20,0.000238,0.000164,1
21,0.000225,0.000151,1
22,0.000263,0.000218,1
23,0.000419,0.00037,1
24,0.000244,0.0002,1
25,0.000323,0.000265,1
26,0.000271,0.000279,1
27,0.000242,0.000182,1
28,0.000182,0.000187,1
29,0.000329,0.000317,1
30,0.000265,0.000207,1
31,0.000156,0.00015,1
32,0.000175,0.000123,1
33,0.000278,0.000243,1
34,0.000214,0.000148,1
35,0.000202,0.000209,1
36,0.000152,9.7e-05,1
37,0.000292,0.000243,1
38,0.00029,0.000223,1
39,0.000305,0.000218,1
40,0.000192,0.000122,1
41,0.000228,0.000172,1
42,0.000162,0.000113,1
43,0.000274,0.000228,1
44,0.000249,0.000176,1
45,0.000293,0.000228,1
46,0.000281,0.000211,1
47,0.000356,0.000322,1
48,0.000146,0.000124,1
49,0.000319,0.000278,1
50,0.000272,0.000161,1
51,0.000237,0.000145,1
52,0.000134,0.000107,1
53,0.000296,0.000248,1
54,0.000298,0.000256,1
55,0.000204,0.000172,1
56,0.000146,0.000134,1
57,0.000215,0.000224,1
58,0.000252,0.000195,1
59,0.000364,0.00031,1
60,0.000152,6.9e-05,1
61,0.000296,0.000247,1
62,0.000282,0.000213,1
63,0.000363,0.000309,1
64,0.000206,0.000148,1
65,0.000298,0.000312,1
66,0.000216,0.000171,1
67,0.000279,0.000181,1
68,0.000155,6.9e-05,1
69,0.000335,0.000265,1
70,0.000282,0.00023,1
71,0.000305,0.000243,1
72,0.000249,0.000148,1
73,0.000273,0.000255,1
74,0.000258,0.000214,1
75,0.000197,0.000203,1
76,0.000156,7.1e-05,1
77,0.000295,0.000276,1
78,0.000299,0.00023,1
79,0.000217,0.000196,1
80,0.000189,0.000123,1
81,0.000324,0.000251,1
82,0.000166,0.000164,1
83,0.000234,0.000149,1
84,0.000235,0.000164,1
85,0.000265,0.000202,1
86,0.000282,0.000212,1
87,0.000208,0.000225,1
88,0.000268,0.000241,1
89,0.000324,0.000264,1
90,0.000274,0.000167,1
91,0.0003,0.000276,1
92,0.000242,0.000177,1
93,0.000181,0.000173,1
94,0.000162,0.00016,1
95,0.000334,0.000238,1
96,0.000182,0.000112,1
97,0.000332,0.000299,1
98,0.000145,0.00013,1
99,0.000264,0.000166,1
100,0.000136,0.000109,1
101,0.000262,0.000199,1
102,0.000161,0.00016,1
103,0.000358,0.000353,1
104,0.000148,6.6e-05,1
105,0.000328,0.000294,1
106,0.000246,0.000237,1
107,0.000248,0.00021,1
108,0.000217,0.000156,1
109,0.000267,0.000192,1
110,0.000303,0.000232,1
111,0.000362,0.000349,1
112,0.000171,0.000133,1
113,0.000323,0.000314,1
114,0.000246,0.00021,1
115,0.000329,0.000266,1
116,0.000258,0.000184,1
117,0.000181,0.000174,1
118,0.000292,0.000203,1
119,0.000225,0.000209,1
120,0.000147,0.000135,1
121,0.000326,0.00029,1
122,0.000258,0.000225,1
123,0.00013,0.000104,1
124,0.000244,0.00018,1
125,0.000293,0.000243,1
126,0.000301,0.000229,1
127,0.00042,0.000346,1
128,0.000205,0.00014,1
129,0.000333,0.000306,1
130,0.000245,0.000233,1
131,0.000294,0.000263,1
132,0.000191,0.00011,1
133,0.000294,0.000243,1
134,0.000286,0.000228,1
135,0.000303,0.000311,1
136,0.000259,0.00019,1
137,0.000332,0.000325,1
138,0.000238,0.000205,1
139,0.000247,0.000175,1
140,0.000256,0.00018,1
141,0.000249,0.000165,1
142,0.00036,0.000278,1
143,0.000415,0.000379,1
144,0.00018,0.000174,1
145,0.000335,0.000315,1
146,0.000262,0.000238,1
147,0.000335,0.000272,1
148,0.000135,0.000111,1
149,0.000183,0.000177,1
150,0.00023,0.000225,1
151,0.000344,0.000245,1
152,0.000168,0.000126,1
153,0.000339,0.000326,1
154,0.000234,0.000202,1
155,0.000233,0.000143,1
156,0.000159,7.6e-05,1
157,0.000225,0.00013,1
158,0.000296,0.000207,1
159,0.000367,0.000299,1
160,0.000261,0.000191,1
161,0.000229,0.00017,1
162,0.000265,0.000243,1
163,0.000336,0.000272,1
164,0.000193,0.000112,1
165,0.00029,0.000257,1
166,0.000282,0.000212,1
167,0.000463,0.000394,1
168,0.000178,0.000172,1
169,0.000151,0.000131,1
170,0.000247,0.000187,1
171,0.000294,0.00025,1
172,0.000161,0.000108,1
173,0.000293,0.00024,1
174,0.000283,0.00021,1
175,0.000352,0.000253,1
176,0.000232,0.000164,1
177,0.000276,0.000241,1
178,0.000163,0.000157,1
179,0.000285,0.000244,1
180,0.000162,0.000108,1
181,0.00016,0.00015,1
182,0.000298,0.000207,1
183,0.000482,0.000387,1
184,0.000143,6e-05,1
185,0.000147,0.000128,1
186,0.000202,0.000134,1
187,0.000127,0.000104,1
188,0.000162,7.8e-05,1
189,0.000159,0.00015,1
190,0.000284,0.000203,1
191,0.000371,0.000296,1
192,0.00023,0.000169,1
193,0.000265,0.000267,1
194,0.0002,0.000132,1
195,0.000127,0.000105,1
196,0.000255,0.000178,1
197,0.000231,9.6e-05,1
198,0.000283,0.000201,1
199,0.000226,0.000214,1
200,0.00018,0.000108,1
201,0.000262,0.000261,1
202,0.000199,0.000131,1
203,0.000291,0.000249,1
204,0.000242,0.000176,1
205,0.000158,0.000149,1
206,0.000266,0.000152,1
207,0.000498,0.0004,1
208,0.000143,6.2e-05,1
209,0.000195,0.000197,1
210,0.000232,0.000175,1
211,0.000268,0.000198,1
212,0.000196,0.000133,1
213,0.00033,0.00024,1
214,0.000282,0.0002,1
215,0.000506,0.000406,1
216,0.000331,0.000312,1
217,0.000376,0.000402,1
218,0.000244,0.000225,1
219,0.000272,0.000175,1
220,0.000232,0.000171,1
221,0.000232,9.8e-05,1
222,0.000306,0.00023,1
223,0.000476,0.00039,1
224,0.000178,0.000105,1
225,0.00028,0.00027,1
226,0.000261,0.00024,1
227,0.000286,0.000251,1
228,0.000234,0.000134,1
229,0.000234,0.000103,1
230,0.000282,0.0002,1
231,0.000485,0.000389,1
232,0.000326,0.000302,1
233,0.000321,0.000284,1
234,0.000157,0.000148,1
235,0.000285,0.000242,1
236,0.000196,0.000133,1
237,0.00025,0.000174,1
238,0.000299,0.000208,1
239,0.000653,0.00071,1
240,0.000261,0.000234,1
241,0.000271,0.000233,1
242,0.000225,0.000194,1
243,0.000281,0.000237,1
244,0.000244,0.00018,1
245,0.000212,0.000109,1
246,0.000276,0.000166,1
247,0.000493,0.00039,1
248,0.000224,0.000169,1
249,0.000284,0.000274,1
250,0.000199,0.000131,1
251,0.000274,0.000178,1
252,0.000134,0.000112,1
253,0.000292,0.000238,1
254,0.000362,0.000278,1
255,0.000309,0.000297,1
256,0.000166,0.000121,1
257,0.000231,0.000177,1
258,0.000192,0.000118,1
259,0.00034,0.000268,1
260,0.000163,8.1e-05,1
261,0.000257,0.000173,1
262,0.000226,0.000222,1
263,0.00044,0.000384,1
264,0.000166,0.000119,1
265,0.000233,0.000182,1
266,0.00026,0.00024,1
267,0.000228,0.000138,1
268,0.000134,0.000113,1
269,0.000236,0.000107,1
270,0.000286,0.000226,1
271,0.000373,0.000294,1
272,0.000252,0.000158,1
273,0.000259,0.000255,1
274,0.000224,0.000194,1
275,0.000338,0.000266,1
276,0.000164,0.000111,1
277,0.000158,0.00015,1
278,0.000161,0.000162,1
279,0.0005,0.000393,1
280,0.000209,0.000144,1
281,0.000187,0.000186,1
282,0.000229,0.000182,1
283,0.000286,0.000246,1
284,0.000165,0.00011,1
285,0.000179,0.000173,1
286,0.00016,0.00016,1
287,0.000377,0.000334,1
288,0.000177,0.000104,1
289,0.000369,0.000394,1
290,0.000285,0.000182,1
291,0.000273,0.000179,1
292,0.000166,0.00011,1
293,0.000211,0.000103,1
294,0.000306,0.000174,1
295,0.000706,0.00074,1
296,0.000207,0.000143,1
297,0.000143,0.000126,1
298,0.000139,0.00013,1
299,0.000243,0.000163,1
300,0.000194,0.000112,1
301,0.000254,0.000169,1
302,0.000287,0.000185,1
303,0.000367,0.000341,1
304,0.000225,0.000172,1
305,0.000258,0.000252,1
306,0.000224,0.000192,1
307,0.000248,0.000208,1
308,0.000164,8.2e-05,1
309,0.000282,0.000197,1
310,0.000379,0.000303,1
311,0.000368,0.000339,1
312,0.00023,0.000164,1
313,0.000286,0.000276,1
314,0.000245,0.000224,1
315,0.000227,0.000135,1
316,0.000196,0.000115,1
317,0.000157,0.000148,1
318,0.000283,0.000202,1
319,0.000211,0.000227,1
320,0.000262,0.000174,1
321,0.000349,0.000291,1
322,0.000291,0.000191,1
323,0.00028,0.000237,1
324,0.000198,0.000116,1
325,0.000157,0.000148,1
326,0.000289,0.000189,1
327,0.000512,0.000414,1
328,0.000228,0.000162,1
329,0.000371,0.000397,1
330,0.000244,0.000183,1
331,0.000228,0.000135,1
332,0.000244,0.00018,1
333,0.000274,0.000236,1
334,0.000302,0.000212,1
335,0.000449,0.000383,1
336,0.000148,7.1e-05,1
337,0.000372,0.000397,1
338,0.000197,0.000125,1
339,0.000338,0.000265,1
340,0.000199,0.000118,1
341,0.000272,0.000229,1
342,0.000303,0.000213,1
343,0.000319,0.000297,1
344,0.000224,0.000173,1
345,0.000288,0.000279,1
346,0.000227,0.000182,1
347,0.000277,0.000233,1
348,0.000244,0.000181,1
349,0.000281,0.000198,1
350,0.000354,0.000263,1
351,0.000506,0.000396,1
352,0.000324,0.000294,1
353,0.000373,0.000397,1
354,0.000198,0.000128,1
355,0.000272,0.000178,1
356,0.00025,0.000171,1
357,0.00029,0.000233,1
358,0.000283,0.000202,1
359,0.000423,0.000381,1
360,0.000169,0.000123,1
361,0.000371,0.000396,1
362,0.000226,0.000192,1
363,0.000268,0.000194,1
364,0.000167,0.000111,1
365,0.000206,9.4e-05,1
366,0.000255,0.000194,1
367,0.000454,0.000384,1
368,0.000177,0.000104,1
369,0.000141,0.000125,1
370,0.000244,0.000183,1
371,0.00025,0.000214,1
372,0.00023,0.000128,1
373,0.000205,8.9e-05,1
374,0.000283,0.000203,1
375,0.000358,0.00026,1
376,0.000151,7.6e-05,1
377,0.000236,0.000188,1
378,0.000244,0.000183,1
379,0.000284,0.000243,1
380,0.000228,0.000125,1
381,0.000254,0.000169,1
382,0.000305,0.000227,1
383,0.000215,0.00023,1
384,0.000171,0.000161,1
385,0.000289,0.000279,1
386,0.000153,0.000143,1
387,0.000242,0.00016,1
388,0.000245,0.000183,1
389,0.000274,0.000236,1
390,0.000306,0.000227,1
391,0.000328,0.000301,1
392,0.000205,0.000141,1
393,0.000349,0.00029,1
394,0.000197,0.000127,1
395,0.00019,0.000192,1
396,0.00032,0.00025,1
397,0.00018,0.000173,1
398,0.000386,0.000313,1
399,0.000368,0.000334,1
400,0.00015,7.5e-05,1
401,0.00014,0.000124,1
402,0.000197,0.000126,1
403,0.000276,0.000232,1
404,0.000194,0.000131,1
405,0.00018,0.000174,1
406,0.000303,0.000214,1
407,0.000229,0.00022,1
408,0.000169,0.000122,1
409,0.000348,0.000287,1
410,0.000137,0.000128,1
411,0.000252,0.000217,1
412,0.000167,0.000111,1
413,0.000181,0.000174,1
414,0.000304,0.000215,1
415,0.000218,0.000233,1
416,0.000226,0.00016,1
417,0.000237,0.000191,1
418,0.000224,0.000191,1
419,0.000253,0.00022,1
420,0.000168,0.000112,1
421,0.000253,0.000167,1
422,0.000305,0.000216,1
423,0.00036,0.000263,1
424,0.000257,0.000174,1
425,0.000347,0.000286,1
426,0.000258,0.000239,1
427,0.000273,0.000229,1
428,0.000198,0.000118,1
429,0.000157,0.000147,1
430,0.000227,0.000224,1
431,0.000335,0.000302,1
432,0.000171,0.000162,1
433,0.000184,0.000182,1
434,0.000239,0.000192,1
435,0.000271,0.000177,1
436,0.000164,8.2e-05,1
437,0.00018,0.000174,1
438,0.00026,0.0002,1
439,0.00034,0.000305,1
440,0.00026,0.000189,1
441,0.000322,0.000285,1
442,0.000243,0.000183,1
443,0.000269,0.000176,1
444,0.000247,0.000185,1
445,0.000204,8.6e-05,1
446,0.00028,0.000205,1
447,0.000362,0.000264,1
448,0.000175,0.000102,1
449,0.000324,0.000267,1
450,0.000258,0.00024,1
451,0.000231,0.000139,1
452,0.000247,0.000216,1
453,0.000256,0.000187,1
454,0.000284,0.000204,1
455,0.00037,0.000287,1
456,0.000262,0.000234,1
457,0.000238,0.000194,1
458,0.000295,0.000197,1
459,0.000269,0.000193,1
460,0.000171,0.00016,1
461,0.000252,0.000166,1
462,0.000388,0.000314,1
463,0.000369,0.000331,1
464,0.000169,0.000121,1
465,0.000321,0.000283,1
466,0.000153,0.000142,1
467,0.000284,0.000244,1
468,0.000172,0.00016,1
469,0.000202,8.2e-05,1
470,0.000226,0.000222,1
471,0.000436,0.000389,1
472,0.000205,0.000141,1
473,0.000138,0.000123,1
474,0.000199,0.00013,1
475,0.000267,0.000224,1
476,0.000226,0.000121,1
477,0.00018,0.000174,1
478,0.000224,0.00022,1
479,0.00052,0.000422,1
480,0.000261,0.00018,1
481,0.000288,0.000279,1
482,0.000135,0.000127,1
483,0.000255,0.000223,1
484,0.000252,0.000172,1
485,0.000236,0.000107,1
486,0.000305,0.000217,1
487,0.000451,0.0004,1
488,0.000223,0.000171,1
489,0.000355,0.000352,1
490,0.000227,0.000181,1
491,0.00027,0.000192,1
492,0.000172,0.000161,1
493,0.000251,0.000165,1
494,0.00031,0.000176,1
495,0.000346,0.000308,1
496,0.000141,0.000133,1
497,0.000321,0.000284,1
498,0.000245,0.000185,1
499,0.000268,0.000176,1
500,0.000165,8.2e-05,1
501,0.000203,8.1e-05,1
502,0.00028,0.000206,1
503,0.000229,0.000221,1
504,0.000171,0.000161,1
505,0.000324,0.000267,1
506,0.000258,0.00024,1
507,0.000233,0.00014,1
508,0.000223,0.000117,1
509,0.000202,7.8e-05,1
510,0.000306,0.000217,1
511,0.00023,0.000222,1
512,0.000171,0.000161,1
513,0.00029,0.000281,1
514,0.000244,0.000184,1
515,0.000234,0.000142,1
516,0.00031,0.000239,1
517,0.00026,0.000193,1
518,0.000223,0.00022,1
519,0.00023,0.000223,1
520,0.00017,0.000122,1
521,0.000181,0.000178,1
522,0.000222,0.000191,1
523,0.000255,0.000225,1
524,0.00025,0.00017,1
525,0.000262,0.000195,1
526,0.000284,0.000222,1
527,0.000372,0.000288,1
528,0.000262,0.000183,1
529,0.000373,0.000397,1
530,0.0002,0.000132,1
531,0.000339,0.000268,1
532,0.000166,8.3e-05,1
533,0.000275,0.000239,1
534,0.000281,0.000206,1
535,0.000509,0.000399,1
536,0.000171,0.000122,1
537,0.000321,0.000284,1
538,0.000222,0.00019,1
539,0.000268,0.000176,1
540,0.000199,0.000118,1
541,0.000288,0.000206,1
542,0.000311,0.000177,1
543,0.000364,0.000267,1
544,0.000171,0.000122,1
545,0.000372,0.000396,1
546,0.000222,0.00019,1
547,0.000255,0.000226,1
548,0.000172,0.000161,1
549,0.000288,0.000207,1
550,0.000281,0.000207,1
551,0.000365,0.000267,1
552,0.000266,0.000187,1
553,0.00034,0.000333,1
554,0.000302,0.000206,1
555,0.000242,0.00016,1
556,0.000192,0.000129,1
557,0.000236,0.000109,1
558,0.000222,0.000219,1
559,0.000369,0.000328,1
560,0.00017,0.00016,1
561,0.000178,0.000174,1
562,0.000151,0.00014,1
563,0.000357,0.000296,1
564,0.000201,0.00012,1
565,0.000157,0.000147,1
566,0.000306,0.000218,1
567,0.000465,0.000424,1
568,0.00017,0.00016,1
569,0.000323,0.000265,1
570,0.000302,0.000207,1
571,0.000338,0.000268,1
572,0.000248,0.000187,1
573,0.000265,0.000198,1
574,0.00016,0.000157,1
575,0.000466,0.000415,1
576,0.000142,0.000133,1
577,0.000241,0.000199,1
578,0.000151,0.000139,1
579,0.000265,0.000218,1
580,0.000134,0.000112,1
581,0.000274,0.000237,1
582,0.000285,0.000206,1
583,0.000521,0.000423,1
584,0.000173,0.000124,1
585,0.000241,0.0002,1
586,0.000303,0.000208,1
587,0.000267,0.000175,1
588,0.000193,0.000129,1
589,0.000274,0.000236,1
590,0.000306,0.000217,1
591,0.000473,0.000421,1
592,0.000175,0.0001,1
593,0.000372,0.000396,1
594,0.000257,0.000238,1
595,0.000284,0.000244,1
596,0.000134,0.000112,1
597,0.000249,0.000162,1
598,0.00016,0.000157,1
599,0.000521,0.000424,1
600,0.000289,0.000284,2
601,0.000277,0.000276,2
602,0.000123,0.0001,2
603,0.000258,0.000241,2
604,0.000226,0.000157,2
605,0.000251,0.000224,2
606,0.000189,0.000148,2
607,0.000404,0.000436,2
608,0.000301,0.00026,2
609,0.000137,0.000146,2
610,0.000235,0.000209,2
611,0.000324,0.000271,2
612,0.000115,9.3e-05,2
613,0.000347,0.000278,2
614,0.000244,0.000196,2
615,0.000414,0.000416,2
616,0.000227,0.000189,2
617,0.000169,0.000147,2
618,0.00024,0.000196,2
619,0.000303,0.000228,2
620,0.000151,9.3e-05,2
621,0.00023,0.000176,2
622,0.000191,0.000186,2
623,0.000424,0.000413,2
624,0.000227,0.000168,2
625,0.000258,0.000296,2
626,0.000232,0.000171,2
627,0.000317,0.000254,2
628,0.000365,0.000321,2
629,0.000143,0.00012,2
630,0.00036,0.000303,2
631,0.000294,0.000263,2
632,0.000173,0.000167,2
633,0.000142,0.000114,2
634,0.000175,0.000126,2
635,0.000197,0.000185,2
636,0.000227,0.000181,2
637,0.000239,0.000208,2
638,0.000372,0.000317,2
639,0.000351,0.000322,2
640,0.000225,0.00016,2
641,0.000348,0.000267,2
642,0.000264,0.000197,2
643,0.000135,0.00013,2
644,0.000141,0.000104,2
645,0.000179,0.000144,2
646,0.000274,0.000223,2
647,0.000229,0.000204,2
648,0.000237,0.000241,2
649,0.000278,0.000272,2
650,0.000249,0.00023,2
651,0.00019,0.000177,2
652,0.00012,0.0001,2
653,0.000306,0.000275,2
654,0.000326,0.00027,2
655,0.000254,0.000227,2
656,0.000282,0.000273,2
657,0.000257,0.00027,2
658,0.00024,0.000193,2
659,0.000255,0.000236,2
660,0.000153,9.5e-05,2
661,0.000248,0.000222,2
662,0.000196,0.000136,2
663,0.000288,0.000298,2
664,0.000254,0.000214,2
665,0.000276,0.000216,2
666,0.000163,0.000111,2
667,0.000138,0.000134,2
668,0.000217,0.000118,2
669,0.000222,0.000159,2
670,0.000223,0.000206,2
671,0.00034,0.00029,2
672,0.000236,0.000186,2
673,0.00024,0.000193,2
674,0.000267,0.00024,2
675,0.000362,0.0003,2
676,0.000219,0.000149,2
677,0.000174,0.00014,2
678,0.000218,0.000186,2
679,0.000302,0.000226,2
680,0.000242,0.000197,2
681,0.000242,0.000201,2
682,0.000271,0.000219,2
683,0.000316,0.000258,2
684,0.000136,0.000105,2
685,0.000214,0.00015,2
686,0.000287,0.000236,2
687,0.000301,0.000239,2
688,0.000113,0.000106,2
689,0.000296,0.000305,2
690,0.000193,0.000163,2
691,0.000238,0.000197,2
692,0.000291,0.000263,2
693,0.000148,0.000126,2
694,0.000288,0.000234,2
695,0.000257,0.00023,2
696,0.000118,0.000111,2
697,0.000286,0.000263,2
698,0.00019,0.000155,2
699,0.000254,0.000233,2
700,0.00025,0.000206,2
701,0.000176,0.000138,2
702,0.000215,0.000186,2
703,0.000354,0.000292,2
704,0.000208,0.000169,2
705,0.000226,0.000184,2
706,0.000246,0.000202,2
707,0.0003,0.00025,2
708,0.000292,0.000258,2
709,0.000225,0.000203,2
710,0.000327,0.000274,2
711,0.000303,0.000222,2
712,0.00023,0.000168,2
713,0.000311,0.000309,2
714,0.000136,0.000115,2
715,0.00033,0.000293,2
716,0.000128,0.000111,2
717,0.00022,0.000181,2
718,0.000208,0.000135,2
719,0.000295,0.000222,2
720,0.000218,0.000213,2
721,0.000221,0.000179,2
722,0.000268,0.000233,2
723,0.000353,0.000288,2
724,0.000131,0.000114,2
725,0.000298,0.000261,2
726,0.000291,0.000236,2
727,0.000242,0.000218,2
728,0.000279,0.000259,2
729,0.000217,0.000176,2
730,0.00024,0.000162,2
731,0.000235,0.000162,2
732,0.000293,0.000257,2
733,0.00023,0.000199,2
734,0.000233,0.000169,2
735,0.000237,0.000211,2
736,0.000252,0.000152,2
737,0.000318,0.000316,2
738,0.000145,0.000124,2
739,0.000232,0.000158,2
740,0.000134,0.000105,2
741,0.000241,0.000182,2
742,0.000332,0.000282,2
743,0.00037,0.000306,2
744,0.000251,0.000151,2
745,0.000249,0.000241,2
746,0.000138,0.000119,2
747,0.000301,0.000259,2
748,0.00023,0.000163,2
749,0.000182,0.000145,2
750,0.000214,0.00014,2
751,0.000171,0.000158,2
752,0.000302,0.00027,2
753,0.000251,0.000235,2
754,0.000202,0.000143,2
755,0.0003,0.000238,2
756,0.000153,9.9e-05,2
757,0.000187,0.000151,2
758,0.000359,0.0003,2
759,0.000311,0.000226,2
760,0.000204,0.000156,2
761,0.000146,0.000158,2
762,0.00027,0.000215,2
763,0.000177,0.000162,2
764,0.000278,0.000265,2
765,0.000265,0.000211,2
766,0.00033,0.000267,2
767,0.000304,0.000216,2
768,0.00025,0.000207,2
769,0.000252,0.000214,2
770,0.000192,0.000154,2
771,0.000249,0.000223,2
772,0.000233,0.000194,2
773,0.00027,0.000216,2
774,0.000214,0.000135,2
775,0.000358,0.000301,2
776,0.000202,0.000147,2
777,0.000129,9.8e-05,2
778,0.000137,0.000118,2
779,0.000248,0.000221,2
780,0.000233,0.000169,2
781,0.000298,0.000263,2
782,0.000216,0.000137,2
783,0.000278,0.000249,2
784,0.000331,0.000325,2
785,0.000139,0.000148,2
786,0.000269,0.000232,2
787,0.000283,0.000242,2
788,0.000251,0.000198,2
789,0.000312,0.000232,2
790,0.000209,0.000183,2
791,0.000377,0.000311,2
792,0.000307,0.00027,2
793,0.00025,0.000228,2
794,0.000251,0.00021,2
795,0.00025,0.000221,2
796,0.000151,9.6e-05,2
797,0.000237,0.000199,2
798,0.000384,0.000329,2
799,0.000308,0.000213,2
800,0.000202,0.000144,2
801,0.00025,0.000224,2
802,0.000138,0.000115,2
803,0.000173,0.000157,2
804,0.00015,9.5e-05,2
805,0.000216,0.000168,2
806,0.000296,0.000253,2
807,0.000175,0.000163,2
808,0.00031,0.000273,2
809,0.000259,0.000207,2
810,0.000199,0.000141,2
811,0.000303,0.000272,2
812,0.00024,0.000197,2
813,0.00024,0.000191,2
814,0.000364,0.000298,2
815,0.000384,0.000319,2
816,0.000249,0.000222,2
817,0.000302,0.000314,2
818,0.000135,0.000111,2
819,0.000171,0.000154,2
820,0.000243,0.000205,2
821,0.000191,0.000153,2
822,0.000206,0.000176,2
823,0.000315,0.000228,2
824,0.000231,0.000166,2
825,0.000353,0.000303,2
826,0.000225,0.000145,2
827,0.000318,0.000296,2
828,0.00022,0.000214,2
829,0.000245,0.000186,2
830,0.000298,0.000249,2
831,0.000368,0.000296,2
832,0.00012,0.000113,2
833,0.000269,0.000209,2
834,0.000168,0.000114,2
835,0.000301,0.000236,2
836,0.000256,0.000206,2
837,0.000272,0.000215,2
838,0.000322,0.000259,2
839,0.000316,0.000229,2
840,0.000255,0.000215,2
841,0.000217,0.000178,2
842,0.000223,0.000142,2
843,0.000334,0.000301,2
844,0.000218,0.000211,2
845,0.000273,0.000215,2
846,0.000368,0.000299,2
847,0.000422,0.000399,2
848,0.000233,0.000166,2
849,0.000265,0.00021,2
850,0.000266,0.00021,2
851,0.000321,0.000281,2
852,0.000133,0.000118,2
853,0.000194,0.000155,2
854,0.000217,0.000134,2
855,0.000294,0.000213,2
856,0.000249,0.000148,2
857,0.000305,0.000319,2
858,0.000134,0.000109,2
859,0.000239,0.000196,2
860,0.000242,0.000195,2
861,0.000243,0.000199,2
862,0.000327,0.000267,2
863,0.000234,0.000208,2
864,0.000248,0.000224,2
865,0.000266,0.000204,2
866,0.000132,0.000107,2
867,0.00033,0.000314,2
868,0.000298,0.000261,2
869,0.000205,0.000143,2
870,0.000235,0.000162,2
871,0.000307,0.000205,2
872,0.000355,0.000345,2
873,0.000215,0.000176,2
874,0.00025,0.00021,2
875,0.000336,0.0003,2
876,0.000233,0.000168,2
877,0.000293,0.000257,2
878,0.000328,0.000263,2
879,0.000315,0.000229,2
880,0.000123,0.000116,2
881,0.000304,0.000318,2
882,0.000172,0.000118,2
883,0.0003,0.000246,2
884,0.000219,0.000212,2
885,0.000242,0.000192,2
886,0.000323,0.00026,2
887,0.000293,0.000203,2
888,0.000257,0.00023,2
889,0.000236,0.000189,2
890,0.000136,0.000118,2
891,0.000242,0.000202,2
892,0.000151,9.5e-05,2
893,0.00029,0.000252,2
894,0.000375,0.000296,2
895,0.000231,0.000205,2
896,0.000227,0.000159,2
897,0.000271,0.000214,2
898,0.000253,0.000214,2
899,0.000313,0.000255,2
900,0.000252,0.000211,2
901,0.000248,0.000187,2
902,0.00021,0.000184,2
903,0.000309,0.000312,2
904,0.000204,0.000144,2
905,0.000214,0.000175,2
906,0.000203,0.000163,2
907,0.000319,0.000266,2
908,0.000135,0.00012,2
909,0.000248,0.000187,2
910,0.000209,0.000183,2
911,0.000476,0.000443,2
912,0.00031,0.000273,2
913,0.000125,9.3e-05,2
914,0.000232,0.000223,2
915,0.000144,0.000142,2
916,0.000133,0.000104,2
917,0.000154,0.000134,2
918,0.000187,0.000181,2
919,0.00031,0.000308,2
920,0.000251,0.000226,2
921,0.000291,0.000312,2
922,0.000204,0.000164,2
923,0.000169,0.000151,2
924,0.000202,0.000103,2
925,0.000212,0.000161,2
926,0.000236,0.000164,2
927,0.000287,0.000259,2
928,0.000227,0.000158,2
929,0.000327,0.000327,2
930,0.000218,0.00018,2
931,0.000248,0.000216,2
932,0.000133,0.000104,2
933,0.000248,0.000188,2
934,0.000391,0.000337,2
935,0.000295,0.000199,2
936,0.000367,0.000357,2
937,0.000125,9.4e-05,2
938,0.000241,0.000235,2
939,0.000234,0.000163,2
940,0.000151,9.5e-05,2
941,0.000307,0.000225,2
942,0.000233,0.000185,2
943,0.000355,0.000304,2
944,0.000228,0.000153,2
945,0.000257,0.00022,2
946,0.000262,0.000204,2
947,0.000169,0.000151,2
948,0.000221,0.000213,2
949,0.000236,0.00021,2
950,0.000233,0.000184,2
951,0.000177,0.000165,2
952,0.000259,0.000222,2
953,0.000255,0.000226,2
954,0.000219,0.000138,2
955,0.000169,0.00015,2
956,0.000355,0.000306,2
957,0.000153,0.000134,2
958,0.000221,0.000139,2
959,0.000376,0.000312,2
960,0.000216,0.000197,2
961,0.000125,9.3e-05,2
962,0.000219,0.000137,2
963,0.000145,0.000143,2
964,0.000245,0.000196,2
965,0.000201,0.000137,2
966,0.000185,0.000179,2
967,0.000418,0.000392,2
968,0.000139,0.000122,2
969,0.000273,0.000215,2
970,0.000138,0.00012,2
971,0.00034,0.000304,2
972,0.000203,0.000107,2
973,0.000199,0.000159,2
974,0.000379,0.000295,2
975,0.000298,0.000199,2
976,0.000254,0.00023,2
977,0.000263,0.000201,2
978,0.000219,0.000136,2
979,0.000246,0.000206,2
980,0.000134,0.000106,2
981,0.000153,0.000133,2
982,0.000289,0.000233,2
983,0.000312,0.000306,2
984,0.000257,0.000234,2
985,0.000125,9.4e-05,2
986,0.00026,0.000201,2
987,0.000305,0.000254,2
988,0.000276,0.000257,2
989,0.000286,0.000245,2
990,0.000205,0.000164,2
991,0.000312,0.000207,2
992,0.000124,0.000119,2
993,0.000263,0.000202,2
994,0.000254,0.000218,2
995,0.000248,0.000215,2
996,0.000258,0.00021,2
997,0.0002,0.00016,2
998,0.000205,0.000163,2
999,0.000389,0.000319,2
1000,0.000256,0.000234,2
1001,0.000304,0.00033,2
1002,0.000223,0.000182,2
1003,0.000354,0.000284,2
1004,0.000136,0.000123,2
1005,0.000302,0.000221,2
1006,0.000233,0.000183,2
1007,0.000315,0.000235,2
1008,0.000256,0.000231,2
1009,0.000255,0.000224,2
1010,0.000197,0.000142,2
1011,0.000238,0.000168,2
1012,0.00022,0.000211,2
1013,0.000272,0.000213,2
1014,0.000319,0.000251,2
1015,0.000386,0.000317,2
1016,0.000228,0.000151,2
1017,0.000336,0.000339,2
1018,0.00025,0.000223,2
1019,0.000248,0.000216,2
1020,0.000247,0.000196,2
1021,0.000245,0.000193,2
1022,0.000204,0.000161,2
1023,0.000316,0.000235,2
1024,0.000126,0.00012,2
1025,0.00035,0.000306,2
1026,0.000246,0.000239,2
1027,0.000239,0.000169,2
1028,0.000134,0.000107,2
1029,0.000238,0.000215,2
1030,0.000301,0.000246,2
1031,0.000315,0.00021,2
1032,0.000217,0.000196,2
1033,0.000125,9.4e-05,2
1034,0.000245,0.000218,2
1035,0.000341,0.000305,2
1036,0.000154,9.9e-05,2
1037,0.000199,0.000134,2
1038,0.000223,0.00014,2
1039,0.000421,0.000392,2
1040,0.000312,0.000274,2
1041,0.000263,0.000231,2
1042,0.000207,0.000165,2
1043,0.000168,0.000149,2
1044,0.00022,0.00021,2
1045,0.000243,0.000198,2
1046,0.000331,0.000266,2
1047,0.000421,0.000391,2
1048,0.00023,0.000153,2
1049,0.000275,0.000215,2
1050,0.000207,0.000165,2
1051,0.000248,0.000215,2
1052,0.000259,0.000217,2
1053,0.000246,0.000194,2
1054,0.000212,0.000187,2
1055,0.000317,0.000212,2
1056,0.000261,0.000226,2
1057,0.000125,9.4e-05,2
1058,0.000217,0.000134,2
1059,0.000343,0.000306,2
1060,0.000278,0.000256,2
1061,0.000274,0.000214,2
1062,0.000318,0.000249,2
1063,0.000293,0.000266,2
1064,0.000202,0.00014,2
1065,0.000136,0.000143,2
1066,0.000207,0.000164,2
1067,0.000146,0.000144,2
1068,0.000236,0.00017,2
1069,0.000247,0.000196,2
1070,0.000203,0.00016,2
1071,0.000398,0.000323,2
1072,0.000228,0.000155,2
1073,0.000263,0.000203,2
1074,0.000256,0.00022,2
1075,0.000292,0.000229,2
1076,0.000297,0.00026,2
1077,0.000274,0.000214,2
1078,0.000287,0.000226,2
1079,0.000299,0.000199,2
1080,0.000232,0.000155,2
1081,0.000133,0.000137,2
1082,0.00026,0.000199,2
1083,0.000293,0.000231,2
1084,0.000153,9.7e-05,2
1085,0.000239,0.000217,2
1086,0.000224,0.000141,2
1087,0.000299,0.000198,2
1088,0.000217,0.000196,2
1089,0.000267,0.000238,2
1090,0.000224,0.000181,2
1091,0.000311,0.000262,2
1092,0.000137,0.000124,2
1093,0.000246,0.000198,2
1094,0.000301,0.000245,2
1095,0.000319,0.000237,2
1096,0.000204,0.000142,2
1097,0.000255,0.000221,2
1098,0.000258,0.000223,2
1099,0.000247,0.000208,2
1100,0.000238,0.000175,2
1101,0.000169,0.000137,2
1102,0.000316,0.000246,2
1103,0.00018,0.000168,2
1104,0.000138,0.000121,2
1105,0.00013,0.000133,2
1106,0.000259,0.000198,2
1107,0.000241,0.000172,2
1108,0.000279,0.000258,2
1109,0.000301,0.00022,2
1110,0.000237,0.000164,2
1111,0.000319,0.000237,2
1112,0.000217,0.000195,2
1113,0.000264,0.000205,2
1114,0.000175,0.000122,2
1115,0.000338,0.000327,2
1116,0.000138,0.000125,2
1117,0.000212,0.00016,2
1118,0.000224,0.000141,2
1119,0.000404,0.000325,2
1120,0.000376,0.000366,2
1121,0.000256,0.000221,2
1122,0.000224,0.00018,2
1123,0.000241,0.000173,2
1124,0.000153,9.7e-05,2
1125,0.000301,0.000221,2
1126,0.000234,0.000185,2
1127,0.000319,0.000307,2
1128,0.000217,0.000194,2
1129,0.000277,0.000216,2
1130,0.000178,0.000124,2
1131,0.000249,0.000212,2
1132,0.00028,0.000257,2
1133,0.00017,0.00014,2
1134,0.000314,0.000243,2
1135,0.000298,0.000271,2
1136,0.000257,0.000235,2
1137,0.000308,0.000325,2
1138,0.000248,0.00024,2
1139,0.000347,0.000311,2
1140,0.00022,0.000211,2
1141,0.000152,0.000134,2
1142,0.000225,0.000141,2
1143,0.00032,0.000214,2
1144,0.000235,0.000158,2
1145,0.000306,0.000322,2
1146,0.000206,0.000163,2
1147,0.00035,0.000314,2
1148,0.000221,0.000211,2
1149,0.000274,0.000215,2
1150,0.000214,0.00019,2
1151,0.000321,0.000215,2
1152,0.000236,0.00016,2
1153,0.000125,9.4e-05,2
1154,0.000206,0.000163,2
1155,0.000248,0.000215,2
1156,0.000221,0.000211,2
1157,0.000199,0.000134,2
1158,0.000236,0.000163,2
1159,0.000422,0.000392,2
1160,0.000261,0.000235,2
1161,0.000223,0.000169,2
1162,0.000259,0.000224,2
1163,0.000353,0.000317,2
1164,0.000297,0.000258,2
1165,0.000275,0.000216,2
1166,0.000332,0.000264,2
1167,0.000318,0.000237,2
1168,0.000228,0.000155,2
1169,0.000337,0.000342,2
1170,0.000193,0.000139,2
1171,0.000168,0.000149,2
1172,0.000242,0.000179,2
1173,0.000282,0.000238,2
1174,0.000286,0.000222,2
1175,0.000422,0.000391,2
1176,0.000237,0.000161,2
1177,0.000125,9.4e-05,2
1178,0.000224,0.00018,2
1179,0.000248,0.000214,2
1180,0.000221,0.000212,2
1181,0.000249,0.000199,2
1182,0.000398,0.000339,2
1183,0.000227,0.0002,2
1184,0.000238,0.000163,2
1185,0.000273,0.000247,2
1186,0.000132,0.000106,2
1187,0.000243,0.000175,2
1188,0.000263,0.00022,2
1189,0.000153,0.000135,2
1190,0.000226,0.000143,2
1191,0.000302,0.0002,2
1192,0.000245,0.000141,2
1193,0.000309,0.000335,2
1194,0.000217,0.000134,2
1195,0.000296,0.000233,2
1196,0.000204,0.000106,2
1197,0.000198,0.000133,2
1198,0.000287,0.000222,2
1199,0.000301,0.000199,2
1200,0.000279,0.000213,4
1201,0.000199,0.000154,4
1202,0.000185,0.00018,4
1203,0.000338,0.000308,4
1204,0.000285,0.00023,4
1205,0.000184,0.000189,4
1206,0.00015,0.000159,4
1207,0.000254,0.000168,4
1208,0.000332,0.000279,4
1209,0.000218,0.00018,4
1210,0.000135,0.000107,4
1211,0.000376,0.000376,4
1212,0.00016,0.000116,4
1213,0.000312,0.000306,4
1214,0.000249,0.000219,4
1215,0.000415,0.000381,4
1216,0.000267,0.000195,4
1217,0.000207,0.000215,4
1218,0.000298,0.000275,4
1219,0.000347,0.000339,4
1220,0.000251,0.000232,4
1221,0.000103,7.6e-05,4
1222,0.000279,0.000239,4
1223,0.000309,0.000223,4
1224,0.000297,0.000255,4
1225,0.000322,0.00024,4
1226,0.000229,0.000181,4
1227,0.000263,0.00021,4
1228,9.9e-05,8.5e-05,4
1229,0.000256,0.000207,4
1230,0.000136,0.000145,4
1231,0.000262,0.000287,4
1232,0.000364,0.000332,4
1233,0.000122,8.8e-05,4
1234,0.000217,0.000161,4
1235,0.000218,0.000238,4
1236,9.1e-05,7.8e-05,4
1237,0.000217,0.000172,4
1238,0.000212,0.000166,4
1239,0.000178,0.000187,4
1240,0.000205,0.000203,4
1241,0.000309,0.000283,4
1242,0.000201,0.000121,4
1243,0.000282,0.000259,4
1244,0.000244,0.000206,4
1245,0.000251,0.00019,4
1246,0.000161,7e-05,4
1247,0.000363,0.00023,4
1248,0.000368,0.000348,4
1249,0.000265,0.000226,4
1250,0.000308,0.00028,4
1251,0.000277,0.00025,4
1252,0.000306,0.000234,4
1253,0.000309,0.000286,4
1254,0.000332,0.000295,4
1255,0.000324,0.000228,4
1256,0.000255,0.000235,4
1257,0.000117,8.9e-05,4
1258,0.000309,0.000268,4
1259,0.000367,0.000334,4
1260,0.0004,0.000398,4
1261,0.000291,0.000248,4
1262,0.000433,0.000417,4
1263,0.000278,0.000125,4
1264,0.000363,0.000372,4
1265,0.000275,0.00025,4
1266,0.000196,0.000115,4
1267,0.000208,0.000227,4
1268,0.000311,0.000232,4
1269,0.000259,0.000199,4
1270,0.000289,0.000219,4
1271,0.000312,0.000169,4
1272,0.000279,0.000214,4
1273,0.000286,0.000265,4
1274,0.000277,0.000232,4
1275,0.000136,0.000127,4
1276,0.000285,0.000252,4
1277,0.000257,0.000245,4
1278,0.00029,0.000236,4
1279,0.000334,0.000239,4
1280,0.000281,0.000234,4
1281,0.000223,0.000192,4
1282,0.000234,0.000194,4
1283,0.000269,0.000208,4
1284,0.000281,0.000253,4
1285,0.000314,0.000321,4
1286,0.000332,0.000295,4
1287,0.000237,0.000138,4
1288,0.000264,0.000245,4
1289,0.000306,0.000225,4
1290,0.000235,0.000191,4
1291,0.000333,0.000343,4
1292,0.000244,0.000197,4
1293,0.000264,0.000205,4
1294,0.000274,0.000228,4
1295,0.000361,0.00028,4
1296,0.000263,0.000204,4
1297,0.000286,0.000302,4
1298,0.000197,0.000116,4
1299,0.000317,0.000226,4
1300,0.000281,0.000256,4
1301,0.000271,0.00021,4
1302,0.000288,0.000231,4
1303,0.000377,0.000288,4
1304,0.000382,0.000353,4
1305,0.000278,0.000255,4
1306,0.000213,0.000168,4
1307,0.000289,0.000227,4
1308,0.000236,0.000198,4
1309,0.000224,0.000191,4
1310,0.000142,0.000133,4
1311,0.000212,0.000224,4
1312,0.000316,0.00027,4
1313,0.000287,0.000294,4
1314,0.000273,0.00023,4
1315,0.000308,0.0003,4
1316,0.000239,0.000201,4
1317,0.000328,0.00034,4
1318,0.000352,0.000325,4
1319,0.000338,0.000174,4
1320,0.000279,0.000211,4
1321,0.000228,0.000198,4
1322,0.000237,0.000189,4
1323,0.000132,0.000122,4
1324,0.00024,0.000202,4
1325,0.000226,0.000194,4
1326,0.000373,0.000343,4
1327,0.000262,0.000166,4
1328,0.000384,0.000373,4
1329,0.000232,0.000202,4
1330,0.000198,0.000116,4
1331,0.000131,0.00012,4
1332,0.000408,0.000385,4
1333,0.000227,0.000195,4
1334,0.000325,0.000283,4
1335,0.000324,0.000195,4
1336,0.000284,0.000229,4
1337,0.000234,0.000204,4
1338,0.000318,0.000294,4
1339,0.000344,0.000343,4
1340,0.000245,0.000195,4
1341,0.00025,0.000208,4
1342,0.000236,0.000147,4
1343,0.00034,0.000282,4
1344,0.000386,0.000355,4
1345,0.000377,0.000317,4
1346,0.000197,0.000116,4
1347,0.000282,0.000218,4
1348,0.000244,0.000206,4
1349,0.000271,0.000212,4
1350,0.000355,0.00036,4
1351,0.000202,0.00021,4
1352,0.000283,0.000215,4
1353,0.000272,0.000247,4
1354,0.00031,0.000273,4
1355,0.000291,0.000221,4
1356,0.000243,0.000199,4
1357,0.000228,0.000199,4
1358,0.000273,0.000201,4
1359,0.000272,0.000184,4
1360,0.000257,0.000191,4
1361,0.000289,0.000294,4
1362,0.000238,0.000189,4
1363,0.000297,0.000223,4
1364,0.000264,0.000197,4
1365,0.000341,0.000315,4
1366,0.000139,0.000129,4
1367,0.000344,0.000178,4
1368,0.000314,0.000262,4
1369,0.00032,0.000294,4
1370,0.000311,0.000274,4
1371,0.000322,0.000213,4
1372,0.000267,0.000205,4
1373,0.000316,0.000276,4
1374,0.000293,0.000214,4
1375,0.000342,0.000248,4
1376,0.000151,0.000132,4
1377,0.000293,0.000295,4
1378,0.000251,0.000195,4
1379,0.000331,0.000219,4
1380,0.00024,0.000195,4
1381,0.000256,0.000237,4
1382,0.000139,0.000129,4
1383,0.000345,0.000249,4
1384,0.000287,0.000228,4
1385,0.000235,0.000205,4
1386,0.000239,0.000189,4
1387,0.0002,0.000218,4
1388,0.000251,0.000204,4
1389,0.00035,0.000323,4
1390,0.000353,0.000351,4
1391,0.000337,0.000215,4
1392,0.000255,0.000187,4
1393,0.000299,0.000219,4
1394,0.000239,0.000188,4
1395,0.000131,0.00012,4
1396,0.000256,0.000211,4
1397,0.000274,0.000216,4
1398,0.000133,0.000141,4
1399,0.000259,0.000155,4
1400,0.000154,0.000141,4
1401,0.000273,0.000228,4
1402,0.000198,0.000116,4
1403,0.000253,0.000184,4
1404,0.00027,0.00021,4
1405,0.000141,0.00013,4
1406,0.000138,0.000128,4
1407,0.000348,0.000183,4
1408,0.000284,0.000215,4
1409,0.000364,0.000305,4
1410,0.000322,0.000292,4
1411,0.000307,0.000292,4
1412,0.000268,0.000205,4
1413,0.000324,0.000287,4
1414,0.000137,0.000128,4
1415,0.000372,0.000283,4
1416,0.000155,0.000144,4
1417,0.000273,0.000231,4
1418,0.000291,0.000256,4
1419,0.000307,0.000302,4
1420,0.000429,0.000416,4
1421,9.7e-05,7.7e-05,4
1422,0.000285,0.000227,4
1423,0.000199,0.000207,4
1424,0.000291,0.000232,4
1425,0.000322,0.000296,4
1426,0.000256,0.000199,4
1427,0.000198,0.000216,4
1428,0.000368,0.000353,4
1429,0.000334,0.000299,4
1430,0.000265,0.000179,4
1431,0.000178,0.000189,4
1432,0.000316,0.000269,4
1433,0.00026,0.000232,4
1434,0.000213,0.000175,4
1435,0.000264,0.00021,4
1436,0.000284,0.000201,4
1437,9.6e-05,7.5e-05,4
1438,0.000294,0.00021,4
1439,0.000258,0.000153,4
1440,0.000217,0.000227,4
1441,0.000272,0.000246,4
1442,0.000152,0.000155,4
1443,0.000302,0.000227,4
1444,0.000288,0.000201,4
1445,0.000139,0.000128,4
1446,0.000347,0.000244,4
1447,0.000297,0.000191,4
1448,0.000312,0.00026,4
1449,0.000253,0.000224,4
1450,0.00024,0.000188,4
1451,0.000356,0.000366,4
1452,0.000442,0.000434,4
1453,0.000264,0.000244,4
1454,0.000322,0.000281,4
1455,0.000196,0.000201,4
1456,0.000251,0.000167,4
1457,0.000251,0.00022,4
1458,0.000214,0.000176,4
1459,0.000252,0.000166,4
1460,0.000267,0.000208,4
1461,0.000254,0.000215,4
1462,0.000275,0.000193,4
1463,0.000262,0.000158,4
1464,0.000263,0.000241,4
1465,0.000297,0.000218,4
1466,0.000197,0.000114,4
1467,0.000265,0.000205,4
1468,0.000248,0.00021,4
1469,0.000256,0.000214,4
1470,0.000288,0.00023,4
1471,0.000349,0.000255,4
1472,0.00025,0.000166,4
1473,0.000236,0.000208,4
1474,0.00024,0.000188,4
1475,0.000196,0.000214,4
1476,0.000268,0.00021,4
1477,0.000268,0.000248,4
1478,0.000321,0.00028,4
1479,0.000382,0.000288,4
1480,0.000382,0.000351,4
1481,0.00025,0.000219,4
1482,0.00024,0.000188,4
1483,0.000255,0.000161,4
1484,0.000273,0.000237,4
1485,0.000271,0.000216,4
1486,0.000133,0.000141,4
1487,0.000195,0.000199,4
1488,0.000253,0.000183,4
1489,0.000362,0.000302,4
1490,0.00011,8.6e-05,4
1491,0.000131,0.000119,4
1492,0.000258,0.000213,4
1493,0.000251,0.000205,4
1494,0.000281,0.000232,4
1495,0.000179,0.000192,4
1496,0.000392,0.000385,4
1497,0.000237,0.000209,4
1498,0.00015,0.000152,4
1499,0.000131,0.000119,4
1500,0.000249,0.000212,4
1501,0.000228,0.000199,4
1502,0.000322,0.00028,4
1503,0.00035,0.000188,4
1504,0.000249,0.000166,4
1505,0.000337,0.000263,4
1506,0.000273,0.00023,4
1507,0.000366,0.000381,4
1508,0.000364,0.000346,4
1509,0.000272,0.000217,4
1510,0.000343,0.000275,4
1511,0.000387,0.000292,4
1512,0.000248,0.000165,4
1513,0.000336,0.000258,4
1514,0.000323,0.000292,4
1515,0.000258,0.000159,4
1516,0.000282,0.000256,4
1517,0.000247,0.000193,4
1518,0.000137,0.000127,4
1519,0.00018,0.000195,4
1520,0.000282,0.000212,4
1521,0.000274,0.000247,4
1522,0.000276,0.000229,4
1523,0.000328,0.000342,4
1524,0.000236,0.000191,4
1525,0.00026,0.000216,4
1526,0.000296,0.000207,4
1527,0.000336,0.000227,4
1528,0.000283,0.000213,4
1529,0.00036,0.000297,4
1530,0.000197,0.000113,4
1531,0.000301,0.000281,4
1532,0.000261,0.000217,4
1533,9.5e-05,7.5e-05,4
1534,0.000353,0.000242,4
1535,0.00018,0.000197,4
1536,0.000291,0.000233,4
1537,0.000251,0.000219,4
1538,0.000148,0.00015,4
1539,0.000131,0.000118,4
1540,0.000135,0.000131,4
1541,0.000137,0.000126,4
1542,0.000348,0.000338,4
1543,0.000343,0.000237,4
1544,0.000282,0.000213,4
1545,0.000205,0.000219,4
1546,0.000256,0.000193,4
1547,0.000299,0.000276,4
1548,0.000136,0.000133,4
1549,0.000345,0.000358,4
1550,0.000294,0.000204,4
1551,0.000267,0.000164,4
1552,0.000159,0.000151,4
1553,0.000296,0.000218,4
1554,0.000215,0.000179,4
1555,0.000267,0.000201,4
1556,0.000279,0.000239,4
1557,0.000349,0.000363,4
1558,0.000357,0.000246,4
1559,0.000391,0.000291,4
1560,0.000283,0.000213,4
1561,0.000296,0.000218,4
1562,0.000285,0.000245,4
1563,0.000261,0.000157,4
1564,0.000137,0.000135,4
1565,0.000352,0.000367,4
1566,0.000288,0.00024,4
1567,0.00039,0.000307,4
1568,0.000315,0.000262,4
1569,0.000338,0.000257,4
1570,0.000277,0.000225,4
1571,0.000267,0.000197,4
1572,0.000232,0.000187,4
1573,0.000345,0.000311,4
1574,0.00028,0.000198,4
1575,0.0004,0.000327,4
1576,0.000218,0.000231,4
1577,0.000317,0.00029,4
1578,0.000311,0.00027,4
1579,0.000334,0.000225,4
1580,0.000251,0.000213,4
1581,0.000255,0.000211,4
1582,0.00029,0.000243,4
1583,0.0004,0.000297,4
1584,0.000306,0.000249,4
1585,0.000111,8.4e-05,4
1586,0.000281,0.000241,4
1587,0.000311,0.000311,4
1588,0.000138,0.000136,4
1589,0.000467,0.000451,4
1590,0.00036,0.000249,4
1591,0.000268,0.000166,4
1592,0.000315,0.00026,4
1593,0.000204,0.00022,4
1594,0.000277,0.000237,4
1595,0.000264,0.000158,4
1596,0.000252,0.000213,4
1597,0.000271,0.000218,4
1598,0.000323,0.000282,4
1599,0.000327,0.000246,4
1600,0.000284,0.000215,4
1601,0.000318,0.000294,4
1602,0.000241,0.000188,4
1603,0.000313,0.000241,4
1604,0.000292,0.000202,4
1605,9.5e-05,7.6e-05,4
1606,0.000323,0.000283,4
1607,0.00031,0.000196,4
1608,0.00016,0.000154,4
1609,0.000202,0.000218,4
1610,0.000103,7.8e-05,4
1611,0.000285,0.000219,4
1612,0.000268,0.000211,4
1613,0.000349,0.000313,4
1614,0.000292,0.000246,4
1615,0.000347,0.000245,4
1616,0.000316,0.000259,4
1617,0.000238,0.00021,4
1618,0.000275,0.000234,4
1619,0.000342,0.000299,4
1620,0.000262,0.000197,4
1621,0.000353,0.000316,4
1622,0.000133,0.000141,4
1623,0.000353,0.000251,4
1624,0.000249,0.000166,4
1625,0.00011,8.4e-05,4
1626,0.00024,0.000187,4
1627,0.000132,0.00012,4
1628,0.000262,0.00022,4
1629,0.000271,0.000251,4
1630,0.000345,0.000267,4
1631,0.000339,0.00026,4
1632,0.00022,0.000235,4
1633,0.000359,0.000294,4
1634,0.000256,0.000191,4
1635,0.000265,0.000156,4
1636,0.000293,0.000202,4
1637,0.000219,0.000147,4
1638,0.000347,0.000335,4
1639,0.0004,0.00033,4
1640,0.000268,0.000246,4
1641,0.00025,0.000219,4
1642,0.000272,0.00023,4
1643,0.000131,0.000119,4
1644,0.000253,0.000215,4
1645,0.000273,0.000254,4
1646,0.000294,0.000215,4
1647,0.000344,0.000266,4
1648,0.000271,0.00025,4
1649,0.000317,0.000293,4
1650,0.000195,0.000111,4
1651,0.000317,0.000245,4
1652,0.00023,0.000186,4
1653,0.000136,0.000124,4
1654,0.000289,0.000209,4
1655,0.000349,0.00019,4
1656,0.000161,0.000155,4
1657,0.000201,0.000218,4
1658,0.000101,7.6e-05,4
1659,0.000309,0.00031,4
1660,0.000138,0.000137,4
1661,0.000229,0.000201,4
1662,0.000318,0.000275,4
1663,0.000349,0.000252,4
1664,0.000249,0.000165,4
1665,0.000359,0.000294,4
1666,0.000194,0.000111,4
1667,0.000297,0.000233,4
1668,0.000284,0.000259,4
1669,9.5e-05,7.6e-05,4
1670,0.000322,0.000281,4
1671,0.000407,0.000302,4
1672,0.000222,0.000237,4
1673,0.000273,0.000247,4
1674,0.000327,0.000296,4
1675,0.000195,0.000213,4
1676,0.00023,0.000186,4
1677,0.000271,0.000218,4
1678,0.000366,0.000256,4
1679,0.000356,0.000257,4
1680,0.000273,0.000254,4
1681,0.000297,0.000218,4
1682,0.000377,0.000337,4
1683,0.000297,0.000273,4
1684,0.000264,0.000222,4
1685,9.5e-05,7.6e-05,4
1686,0.000133,0.00014,4
1687,0.000414,0.000309,4
1688,0.000248,0.000165,4
1689,0.000295,0.000293,4
1690,0.000328,0.000297,4
1691,0.000131,0.000118,4
1692,0.000265,0.000223,4
1693,0.00023,0.000202,4
1694,0.000291,0.000214,4
1695,0.000318,0.000202,4
1696,0.000161,0.000155,4
1697,0.000297,0.000219,4
1698,9.9e-05,7.3e-05,4
1699,0.000268,0.000196,4
1700,0.000294,0.000203,4
1701,0.000135,0.000123,4
1702,0.000132,0.00014,4
1703,0.000398,0.00033,4
1704,0.000161,0.000155,4
1705,0.000359,0.000293,4
1706,0.000329,0.000298,4
1707,0.000266,0.000154,4
1708,0.000261,0.000197,4
1709,0.000253,0.000208,4
1710,0.000348,0.000267,4
1711,0.00035,0.000252,4
1712,0.000275,0.000256,4
1713,0.000249,0.000217,4
1714,0.000257,0.000191,4
1715,0.000194,0.000213,4
1716,0.000259,0.000196,4
1717,0.000226,0.000155,4
1718,0.000295,0.000204,4
1719,0.000323,0.000205,4
1720,0.000296,0.000238,4
1721,0.000359,0.000292,4
1722,0.000241,0.000187,4
1723,0.000268,0.000194,4
1724,0.000267,0.000225,4
1725,0.00023,0.000203,4
1726,0.000137,0.000128,4
1727,0.00038,0.00028,4
1728,0.000276,0.000258,4
1729,0.00024,0.000212,4
1730,0.00027,0.000228,4
1731,0.000321,0.000334,4
1732,0.000284,0.000239,4
1733,0.00025,0.000192,4
1734,0.000292,0.000237,4
1735,0.000396,0.000329,4
1736,0.000315,0.000257,4
1737,0.00024,0.000212,4
1738,0.00028,0.000222,4
1739,0.000311,0.000314,4
1740,0.000285,0.000239,4
1741,0.000355,0.000321,4
1742,0.000132,0.00014,4
1743,0.000351,0.000275,4
1744,0.000161,0.000155,4
1745,0.000359,0.000291,4
1746,0.000146,0.000149,4
1747,0.000334,0.000288,4
1748,0.000286,0.000239,4
1749,0.00023,0.00016,4
1750,0.00035,0.000265,4
1751,0.000271,0.000169,4
1752,0.000247,0.000164,4
1753,0.000249,0.000216,4
1754,0.000146,0.000148,4
1755,0.000131,0.000118,4
1756,0.00023,0.000187,4
1757,0.000352,0.000368,4
1758,0.000137,0.000127,4
1759,0.000196,0.0002,4
1760,0.0004,0.000395,4
1761,0.000359,0.00029,4
1762,0.000312,0.000272,4
1763,0.000267,0.000192,4
1764,0.000269,0.000213,4
1765,0.000272,0.00022,4
1766,0.000351,0.000266,4
1767,0.000272,0.000169,4
1768,0.00025,0.000178,4
1769,0.000248,0.000215,4
1770,0.000241,0.000187,4
1771,0.000131,0.000117,4
1772,0.000283,0.000258,4
1773,0.000255,0.000211,4
1774,0.00037,0.000261,4
1775,0.000326,0.000207,4
1776,0.000277,0.000259,4
1777,0.000297,0.000219,4
1778,0.000194,0.00011,4
1779,0.000376,0.000398,4
1780,0.000253,0.000215,4
1781,0.000134,0.000123,4
1782,0.000132,0.000139,4
1783,0.000351,0.000194,4
1784,0.000295,0.000237,4
1785,0.000336,0.000253,4
1786,0.000258,0.000191,4
1787,0.000296,0.000271,4
1788,0.00027,0.000215,4
1789,0.000277,0.000258,4
1790,0.000299,0.000218,4
1791,0.000354,0.000198,4
1792,0.000384,0.000349,4
1793,0.000248,0.000214,4
1794,0.000241,0.000187,4
1795,0.000336,0.000226,4
1796,0.000356,0.000334,4
1797,0.000248,0.000189,4
1798,0.000137,0.000128,4
1799,0.000351,0.000253,4
1800,0.000314,0.000274,8
1801,0.000304,0.000229,8
1802,0.000204,0.000203,8
1803,0.000293,0.000234,8
1804,0.000302,0.000256,8
1805,0.000293,0.00024,8
1806,0.00026,0.000148,8
1807,0.000408,0.000408,8
1808,0.000433,0.000455,8
1809,0.000371,0.000296,8
1810,0.000265,0.000178,8
1811,0.000432,0.000358,8
1812,0.000183,0.000136,8
1813,0.000232,0.000144,8
1814,0.000226,0.000135,8
1815,0.000164,8.9e-05,8
1816,0.000294,0.00022,8
1817,0.000297,0.000214,8
1818,0.000329,0.000289,8
1819,0.000293,0.000309,8
1820,0.000286,0.000233,8
1821,0.000176,0.000168,8
1822,0.000263,0.000173,8
1823,0.000245,0.000182,8
1824,0.000383,0.000392,8
1825,0.000302,0.000238,8
1826,0.00024,0.000136,8
1827,0.000161,0.000138,8
1828,0.000309,0.000266,8
1829,0.000254,0.000196,8
1830,0.00022,8.8e-05,8
1831,0.000327,0.000271,8
1832,0.000224,0.000132,8
1833,0.000264,0.000201,8
1834,0.000262,0.000189,8
1835,0.000336,0.000214,8
1836,0.000257,0.000208,8
1837,0.000401,0.00036,8
1838,0.000211,0.00015,8
1839,0.000313,0.000262,8
1840,0.000251,0.000247,8
1841,0.000227,0.000198,8
1842,0.000271,0.000247,8
1843,0.000346,0.000239,8
1844,0.000256,0.000204,8
1845,0.00028,0.000178,8
1846,0.000261,0.000182,8
1847,0.000387,0.0003,8
1848,0.000103,6.4e-05,8
1849,0.000356,0.000273,8
1850,0.000244,0.000145,8
1851,0.000336,0.000213,8
1852,0.00025,0.000174,8
1853,0.000177,0.00017,8
1854,0.000277,0.000226,8
1855,0.000313,0.000223,8
1856,0.000239,0.000166,8
1857,0.000282,0.000193,8
1858,0.000344,0.000335,8
1859,0.000173,0.000161,8
1860,0.000305,0.000306,8
1861,0.000232,0.000195,8
1862,0.000256,0.000169,8
1863,0.000287,0.000216,8
1864,0.000261,0.000186,8
1865,0.00024,0.000219,8
1866,0.000256,0.000226,8
1867,0.000175,0.000165,8
1868,0.000255,0.000184,8
1869,0.000325,0.000242,8
1870,0.000325,0.000274,8
1871,0.000357,0.000295,8
1872,0.000245,0.000177,8
1873,0.000279,0.000221,8
1874,0.000323,0.000291,8
1875,0.000361,0.000198,8
1876,0.000181,0.000109,8
1877,0.000336,0.00024,8
1878,0.000337,0.000296,8
1879,0.000285,0.000205,8
1880,0.00021,0.000197,8
1881,0.000278,0.000189,8
1882,0.000312,0.000281,8
1883,0.000177,0.000167,8
1884,0.000311,0.000267,8
1885,0.000184,0.000112,8
1886,0.000303,0.000256,8
1887,0.000361,0.000263,8
1888,0.000364,0.000367,8
1889,0.00013,0.000121,8
1890,0.00026,0.000188,8
1891,0.000179,0.000169,8
1892,0.000178,0.000101,8
1893,0.000326,0.000307,8
1894,0.000263,0.000176,8
1895,0.000276,0.000181,8
1896,0.000197,0.00011,8
1897,0.000246,0.000179,8
1898,0.000301,0.000306,8
1899,0.000258,0.000181,8
1900,0.000248,0.00019,8
1901,0.000174,9.3e-05,8
1902,0.000347,0.00031,8
1903,0.000296,0.000202,8
1904,0.00025,0.000184,8
1905,0.000248,0.00019,8
1906,0.000258,0.000186,8
1907,0.000336,0.000217,8
1908,0.00012,9.3e-05,8
1909,0.000173,8.7e-05,8
1910,0.000312,0.000264,8
1911,0.000373,0.000297,8
1912,9.9e-05,6.9e-05,8
1913,0.000237,0.00022,8
1914,0.000341,0.000297,8
1915,0.000328,0.000252,8
1916,0.00032,0.000239,8
1917,0.000196,0.000136,8
1918,0.000185,0.000184,8
1919,0.00024,0.000141,8
1920,0.000303,0.000247,8
1921,0.000138,0.000131,8
1922,0.000259,0.000187,8
1923,0.000332,0.000259,8
1924,0.000173,9.5e-05,8
1925,0.000303,0.000217,8
1926,0.000244,0.000172,8
1927,0.000239,0.000226,8
1928,0.000261,0.000261,8
1929,0.000246,0.00019,8
1930,0.000264,0.000234,8
1931,0.000398,0.000378,8
1932,0.000254,0.000175,8
1933,0.000177,8.9e-05,8
1934,0.000253,0.000181,8
1935,0.000207,0.000217,8
1936,0.000375,0.000344,8
1937,0.000284,0.000228,8
1938,0.000186,0.000181,8
1939,0.000331,0.000261,8
1940,0.000318,0.000275,8
1941,0.000293,0.000247,8
1942,0.000256,0.000169,8
1943,0.000366,0.000271,8
1944,0.000218,0.000212,8
1945,0.000219,0.00021,8
1946,0.000358,0.000312,8
1947,0.000334,0.000304,8
1948,0.000193,0.00017,8
1949,0.000246,0.000193,8
1950,0.000323,0.000276,8
1951,0.000265,0.000163,8
1952,0.000266,0.000266,8
1953,0.000451,0.00042,8
1954,0.000247,0.00015,8
1955,0.000336,0.000217,8
1956,0.000295,0.000244,8
1957,0.000152,0.000153,8
1958,0.000258,0.000173,8
1959,0.000196,0.000201,8
1960,0.000308,0.000228,8
1961,0.00014,0.000133,8
1962,0.000355,0.000311,8
1963,0.000381,0.000371,8
1964,0.000272,0.000269,8
1965,0.000224,0.000172,8
1966,0.000257,0.000187,8
1967,0.000285,0.000197,8
1968,0.000367,0.000368,8
1969,0.000453,0.00042,8
1970,0.000321,0.00029,8
1971,0.000337,0.000219,8
1972,0.000319,0.000274,8
1973,0.000318,0.000241,8
1974,0.00026,0.000176,8
1975,0.000237,0.000231,8
1976,0.000283,0.000202,8
1977,0.000209,0.000199,8
1978,0.000247,0.00015,8
1979,0.000175,0.000164,8
1980,0.000172,9.4e-05,8
1981,0.000178,0.000175,8
1982,0.000219,8e-05,8
1983,0.000276,0.000185,8
1984,0.000286,0.000205,8
1985,0.000258,0.000221,8
1986,0.000319,0.000286,8
1987,0.000397,0.000387,8
1988,0.000122,9.9e-05,8
1989,0.000398,0.000365,8
1990,0.0002,0.000182,8
1991,0.000344,0.000246,8
1992,0.00032,0.000239,8
1993,0.000289,0.000235,8
1994,0.000296,0.00029,8
1995,0.000318,0.000236,8
1996,0.000297,0.00023,8
1997,0.000247,0.000192,8
1998,0.000348,0.000236,8
1999,0.000284,0.000194,8
2000,0.000257,0.000194,8
2001,0.000327,0.000249,8
2002,0.000356,0.000313,8
2003,0.000368,0.000203,8
2004,0.00029,0.000237,8
2005,0.000333,0.000234,8
2006,0.000347,0.00031,8
2007,0.000193,0.000196,8
2008,0.0003,0.000241,8
2009,0.00028,0.000189,8
2010,0.000265,0.000234,8
2011,0.000259,0.000269,8
2012,0.00032,0.000237,8
2013,0.000396,0.000363,8
2014,0.000261,0.000178,8
2015,0.000267,0.000161,8
2016,0.000325,0.000245,8
2017,0.000277,0.000247,8
2018,0.000346,0.000342,8
2019,0.000399,0.000306,8
2020,0.000194,0.000174,8
2021,0.000236,0.000191,8
2022,0.000302,0.000182,8
2023,0.000303,0.000209,8
2024,0.000368,0.000368,8
2025,0.000287,0.00026,8
2026,0.000269,0.000238,8
2027,0.000482,0.000368,8
2028,0.000174,9.7e-05,8
2029,0.000243,0.000201,8
2030,0.000258,0.00019,8
2031,0.000268,0.000161,8
2032,0.000426,0.000392,8
2033,0.000143,0.000136,8
2034,0.000304,0.000258,8
2035,0.000254,0.000261,8
2036,0.000309,0.00025,8
2037,0.000309,0.00028,8
2038,0.000325,0.000204,8
2039,0.00029,0.00019,8
2040,0.000257,0.000194,8
2041,0.000291,0.000239,8
2042,0.000261,0.00019,8
2043,0.000337,0.000261,8
2044,0.000194,0.000176,8
2045,0.0004,0.000368,8
2046,0.00034,0.000229,8
2047,0.00023,0.000224,8
2048,0.000288,0.000208,8
2049,0.000293,0.000268,8
2050,0.000249,0.000156,8
2051,0.000315,0.00028,8
2052,0.000277,0.000276,8
2053,0.000339,0.00024,8
2054,0.000266,0.0002,8
2055,0.000353,0.000249,8
2056,0.000216,0.000213,8
2057,0.00024,0.000224,8
2058,0.000304,0.000253,8
2059,0.000344,0.000272,8
2060,0.000195,0.000178,8
2061,0.000251,0.000215,8
2062,0.000259,0.000192,8
2063,0.000411,0.000331,8
2064,0.000214,0.00013,8
2065,0.000369,0.000294,8
2066,0.00026,0.000189,8
2067,0.000177,0.000166,8
2068,0.000289,0.000236,8
2069,0.000254,0.000223,8
2070,0.00035,0.000316,8
2071,0.000419,0.000347,8
2072,0.000102,7.3e-05,8
2073,0.000294,0.000243,8
2074,0.000356,0.000314,8
2075,0.00035,0.000282,8
2076,0.000286,0.000233,8
2077,0.000184,9.8e-05,8
2078,0.000221,7.8e-05,8
2079,0.000191,0.000192,8
2080,0.000103,7.5e-05,8
2081,0.000298,0.000275,8
2082,0.000357,0.000316,8
2083,0.000372,0.000204,8
2084,0.000315,0.000262,8
2085,0.000345,0.000244,8
2086,0.000268,0.000201,8
2087,0.00033,0.00024,8
2088,0.000317,0.000252,8
2089,0.000244,0.00023,8
2090,0.000306,0.000253,8
2091,0.000353,0.000286,8
2092,0.000252,0.000194,8
2093,0.000177,0.000173,8
2094,0.00034,0.000227,8
2095,0.000391,0.000321,8
2096,0.000216,0.000213,8
2097,0.000206,0.000194,8
2098,0.000271,0.00024,8
2099,0.000177,0.000167,8
2100,0.000256,0.000186,8
2101,0.000346,0.000245,8
2102,0.00034,0.000214,8
2103,0.000341,0.000248,8
2104,0.000312,0.000257,8
2105,0.000302,0.00028,8
2106,0.00035,0.000347,8
2107,0.000178,0.000167,8
2108,0.000284,0.000231,8
2109,0.000325,0.000251,8
2110,0.000334,0.000287,8
2111,0.00019,0.000191,8
2112,0.000314,0.00026,8
2113,0.000388,0.000318,8
2114,0.000349,0.000299,8
2115,0.000403,0.000394,8
2116,0.000319,0.000269,8
2117,0.000186,0.000101,8
2118,0.000269,0.000202,8
2119,0.000345,0.00025,8
2120,0.000318,0.000253,8
2121,0.000247,0.000233,8
2122,0.000273,0.000242,8
2123,0.000328,0.000257,8
2124,0.000173,9.5e-05,8
2125,0.000302,0.000231,8
2126,0.000348,0.000223,8
2127,0.0003,0.000196,8
2128,0.000258,0.000195,8
2129,0.000144,0.000138,8
2130,0.000355,0.00031,8
2131,0.000485,0.000367,8
2132,0.000195,0.000179,8
2133,0.000186,0.000102,8
2134,0.000324,0.000255,8
2135,0.000357,0.000251,8
2136,0.000289,0.000208,8
2137,0.000396,0.000331,8
2138,0.000356,0.000313,8
2139,0.000336,0.000221,8
2140,0.000321,0.000273,8
2141,0.000187,0.000104,8
2142,0.000269,0.000202,8
2143,0.000362,0.000253,8
2144,0.000317,0.000252,8
2145,0.000204,0.000192,8
2146,0.000308,0.000254,8
2147,0.000414,0.000319,8
2148,0.000252,0.000182,8
2149,0.000245,0.000204,8
2150,0.000223,8.1e-05,8
2151,0.00041,0.000354,8
2152,0.000258,0.000195,8
2153,0.000144,0.000138,8
2154,0.000357,0.000316,8
2155,0.000179,0.000168,8
2156,0.000325,0.000284,8
2157,0.00025,0.00021,8
2158,0.000225,8.3e-05,8
2159,0.000307,0.0002,8
2160,0.000327,0.000248,8
2161,0.000306,0.000286,8
2162,0.000262,0.000192,8
2163,0.000484,0.000366,8
2164,0.000328,0.000288,8
2165,0.000328,0.000255,8
2166,0.000262,0.0002,8
2167,0.000233,0.000229,8
2168,0.000316,0.000251,8
2169,0.000408,0.000405,8
2170,0.00029,0.000279,8
2171,0.000302,0.000258,8
2172,0.000322,0.000275,8
2173,0.000189,0.000107,8
2174,0.000342,0.000275,8
2175,0.00035,0.000255,8
2176,0.00029,0.000209,8
2177,0.000403,0.000339,8
2178,0.000262,0.000191,8
2179,0.000301,0.000258,8
2180,0.000258,0.000188,8
2181,0.000249,0.000196,8
2182,0.000348,0.000283,8
2183,0.000234,0.000232,8
2184,0.000316,0.000262,8
2185,0.000203,0.00019,8
2186,0.000359,0.000319,8
2187,0.000301,0.000257,8
2188,0.000261,0.000191,8
2189,0.000178,0.000174,8
2190,0.00035,0.000313,8
2191,0.000353,0.000258,8
2192,0.000386,0.000355,8
2193,0.000309,0.000289,8
2194,0.000343,0.000304,8
2195,0.000267,0.00019,8
2196,0.000124,0.000103,8
2197,0.000331,0.00026,8
2198,0.00027,0.000202,8
2199,0.000278,0.000168,8
2200,0.000432,0.000402,8
2201,0.000407,0.000344,8
2202,0.000358,0.000318,8
2203,0.000179,0.000169,8
2204,0.000195,0.00018,8
2205,0.000259,0.000229,8
2206,0.000264,0.000203,8
2207,0.000312,0.000203,8
2208,0.000291,0.00021,8
2209,0.000145,0.000139,8
2210,0.000353,0.000351,8
2211,0.00018,0.00017,8
2212,0.000125,0.000105,8
2213,0.000153,0.000153,8
2214,0.000344,0.000254,8
2215,0.000189,0.00019,8
2216,0.000316,0.000263,8
2217,0.0003,0.000253,8
2218,0.00036,0.00032,8
2219,0.000328,0.000257,8
2220,0.000297,0.00024,8
2221,0.000336,0.000321,8
2222,0.000343,0.000229,8
2223,0.00041,0.000345,8
2224,0.000259,0.000197,8
2225,0.000247,0.000196,8
2226,0.000144,0.000129,8
2227,0.000353,0.000288,8
2228,0.000314,0.000229,8
2229,0.00031,0.00025,8
2230,0.000271,0.000204,8
2231,0.000355,0.000259,8
2232,0.000291,0.00021,8
2233,0.000425,0.000422,8
2234,0.000144,0.000129,8
2235,0.00042,0.000326,8
2236,0.000261,0.000191,8
2237,0.00026,0.000231,8
2238,0.000196,0.000183,8
2239,0.000424,0.000355,8
2240,0.000224,0.000142,8
2241,0.000279,0.000188,8
2242,0.000275,0.000244,8
2243,0.00018,0.00017,8
2244,0.000263,0.000193,8
2245,0.000192,0.000111,8
2246,0.000272,0.000205,8
2247,0.000367,0.000255,8
2248,0.000314,0.000249,8
2249,0.00033,0.000256,8
2250,0.000186,0.000181,8
2251,0.000335,0.000221,8
2252,0.000311,0.000226,8
2253,0.000254,0.000215,8
2254,0.000194,0.000179,8
2255,0.000316,0.000206,8
2256,0.000105,7.8e-05,8
2257,0.00028,0.000189,8
2258,0.000359,0.00032,8
2259,0.00025,0.000255,8
2260,0.000279,0.00028,8
2261,0.000312,0.00029,8
2262,0.000261,0.00018,8
2263,0.000284,0.00019,8
2264,0.000227,0.000146,8
2265,0.0002,0.000187,8
2266,0.000143,0.000127,8
2267,0.000409,0.000397,8
2268,0.000325,0.000281,8
2269,0.000315,0.000297,8
2270,0.000362,0.000273,8
2271,0.000285,0.00019,8
2272,0.00037,0.00037,8
2273,0.000445,0.000412,8
2274,0.000328,0.000301,8
2275,0.000328,0.000259,8
2276,0.00025,0.000181,8
2277,0.000263,0.000235,8
2278,0.000226,8.4e-05,8
2279,0.000422,0.000363,8
2280,0.00023,0.00015,8
2281,0.000433,0.00043,8
2282,0.000346,0.000309,8
2283,0.000356,0.000293,8
2284,0.000326,0.000282,8
2285,0.000263,0.000236,8
2286,0.000174,0.000171,8
2287,0.000384,0.000252,8
2288,0.000318,0.000264,8
2289,0.000282,0.00019,8
2290,0.00031,0.000254,8
2291,0.000427,0.000335,8
2292,0.000283,0.000229,8
2293,0.000404,0.000374,8
2294,0.000265,0.000204,8
2295,0.000385,0.00025,8
2296,0.000231,0.000152,8
2297,0.000302,0.000255,8
2298,0.000349,0.000314,8
2299,0.000409,0.000395,8
2300,0.000309,0.000224,8
2301,0.000257,0.000219,8
2302,0.000192,0.000177,8
2303,0.000385,0.000246,8
2304,0.000258,0.000197,8
2305,0.000243,0.00019,8
2306,0.000355,0.000353,8
2307,0.000485,0.000366,8
2308,0.000195,0.000179,8
2309,0.000153,0.000155,8
2310,0.000227,8.4e-05,8
2311,0.000423,0.000356,8
2312,0.000313,0.000249,8
2313,0.000199,0.000185,8
2314,0.000328,0.000301,8
2315,0.000358,0.000294,8
2316,0.000279,0.00028,8
2317,0.000191,0.000111,8
2318,0.000192,0.000176,8
2319,0.000235,0.000232,8
2320,0.000274,0.000275,8
2321,0.000302,0.000256,8
2322,0.000313,0.000258,8
2323,0.000484,0.000366,8
2324,0.000282,0.000228,8
2325,0.000253,0.0002,8
2326,0.000261,0.000179,8
2327,0.000279,0.000166,8
2328,0.000312,0.000249,8
2329,0.000252,0.000241,8
2330,0.000187,0.000183,8
2331,0.000336,0.000222,8
2332,0.000327,0.000284,8
2333,0.000342,0.000324,8
2334,0.000261,0.000179,8
2335,0.00031,0.000215,8
2336,0.000292,0.000211,8
2337,0.000312,0.000294,8
2338,0.000142,0.000127,8
2339,0.000248,0.00025,8
2340,0.000124,0.000106,8
2341,0.000179,0.000173,8
2342,0.000352,0.000316,8
2343,0.000236,0.000234,8
2344,0.000105,7.9e-05,8
2345,0.000198,0.000184,8
2346,0.000286,0.00027,8
2347,0.000265,0.000187,8
2348,0.000264,0.000194,8
2349,0.000179,0.000173,8
2350,0.000227,8.4e-05,8
2351,0.00031,0.000214,8
2352,0.000371,0.000371,8
2353,0.000242,0.000189,8
2354,0.000284,0.000267,8
2355,0.000369,0.000201,8
2356,0.0003,0.000241,8
2357,0.000264,0.000238,8
2358,0.000347,0.000283,8
2359,0.000236,0.000235,8
2360,0.000105,7.9e-05,8
2361,0.000242,0.000189,8
2362,0.00025,0.000157,8
2363,0.000484,0.000366,8
2364,0.000195,0.00018,8
2365,0.000193,0.000114,8
2366,0.00035,0.000287,8
2367,0.000323,0.000214,8
2368,0.000232,0.000153,8
2369,0.000304,0.000246,8
2370,0.000251,0.000158,8
2371,0.000409,0.000392,8
2372,0.000248,0.00018,8
2373,0.000193,0.000113,8
2374,0.000352,0.00029,8
2375,0.00031,0.000214,8
2376,0.000389,0.000359,8
2377,0.000332,0.000258,8
2378,0.00036,0.000324,8
2379,0.00037,0.000203,8
2380,0.000176,9.9e-05,8
2381,0.000254,0.000201,8
2382,0.000227,8.4e-05,8
2383,0.000237,0.000237,8
2384,0.000106,8e-05,8
2385,0.000148,0.000142,8
2386,0.000142,0.000127,8
2387,0.000303,0.00026,8
2388,0.000308,0.000222,8
2389,0.000255,0.000202,8
2390,0.000375,0.000291,8
2391,0.000325,0.000215,8
2392,0.000436,0.000409,8
2393,0.000198,0.000184,8
2394,0.000263,0.000192,8
2395,0.000358,0.000295,8
2396,0.000125,0.000107,8
2397,0.000194,0.000115,8
2398,0.000227,8.4e-05,8
2399,0.000425,0.00036,8
2400,0.000259,0.000213,16
2401,0.000298,0.000161,16
2402,0.000285,0.000184,16
2403,0.000287,0.000164,16
2404,0.000174,0.000157,16
2405,0.000226,0.000157,16
2406,0.00011,9.1e-05,16
2407,0.000308,0.000248,16
2408,0.000369,0.000353,16
2409,0.000288,0.000277,16
2410,0.00022,0.000139,16
2411,0.000325,0.000268,16
2412,0.000206,0.000139,16
2413,0.000347,0.000275,16
2414,0.000132,0.00011,16
2415,0.000363,0.000283,16
2416,0.000226,0.000213,16
2417,0.000327,0.000228,16
2418,0.000246,0.00017,16
2419,7.7e-05,5.5e-05,16
2420,0.00025,0.000154,16
2421,0.000201,0.000148,16
2422,0.000272,0.000215,16
2423,0.00037,0.000278,16
2424,0.000374,0.000342,16
2425,0.00032,0.00022,16
2426,0.000235,0.000171,16
2427,0.000386,0.000362,16
2428,0.000307,0.000253,16
2429,0.000283,0.000185,16
2430,0.000251,0.000171,16
2431,0.000267,0.000176,16
2432,0.000271,0.000242,16
2433,0.000257,0.000212,16
2434,0.000302,0.000188,16
2435,0.000305,0.00025,16
2436,0.000252,0.000197,16
2437,0.000153,0.000136,16
2438,0.000265,0.000145,16
2439,0.000284,0.000191,16
2440,0.000327,0.000254,16
2441,0.000255,0.000203,16
2442,0.000299,0.000228,16
2443,0.000413,0.000389,16
2444,0.000279,0.000211,16
2445,0.000249,0.000197,16
2446,0.000251,0.000189,16
2447,0.000277,0.000195,16
2448,0.000427,0.000419,16
2449,0.000294,0.000195,16
2450,0.000229,0.000168,16
2451,0.000282,0.000194,16
2452,0.000262,0.000204,16
2453,0.000305,0.00027,16
2454,0.000112,9e-05,16
2455,0.000351,0.000244,16
2456,0.000199,0.000174,16
2457,0.000112,9.8e-05,16
2458,0.000284,0.000205,16
2459,0.000107,9.2e-05,16
2460,0.000119,0.000106,16
2461,0.000271,0.000204,16
2462,0.000296,0.000235,16
2463,0.000277,0.000231,16
2464,0.000318,0.000236,16
2465,0.000273,0.000255,16
2466,0.00025,0.00019,16
2467,0.000162,3.7e-05,16
2468,0.000243,0.000134,16
2469,0.000305,0.000266,16
2470,0.000279,0.000159,16
2471,0.000372,0.000307,16
2472,0.00032,0.00024,16
2473,0.000222,0.000144,16
2474,0.000257,0.0002,16
2475,0.000279,0.000188,16
2476,0.000197,0.000156,16
2477,0.000306,0.000265,16
2478,0.000243,0.000177,16
2479,0.000122,0.000107,16
2480,0.000195,0.000167,16
2481,0.000244,0.000161,16
2482,0.000239,0.000168,16
2483,0.000303,0.000258,16
2484,0.000298,0.000228,16
2485,0.000272,0.000213,16
2486,0.000318,0.000237,16
2487,0.000297,0.000244,16
2488,0.0002,0.000173,16
2489,0.000323,0.000237,16
2490,0.000242,0.000173,16
2491,0.000289,0.000171,16
2492,0.000298,0.000229,16
2493,0.000176,0.000125,16
2494,0.000237,0.00017,16
2495,0.000281,0.00018,16
2496,0.00044,0.000437,16
2497,0.000251,0.000195,16
2498,0.000116,9.5e-05,16
2499,0.000391,0.000368,16
2500,0.000299,0.00023,16
2501,0.000412,0.00034,16
2502,0.000104,8.7e-05,16
2503,0.000125,0.000112,16
2504,0.000212,0.000188,16
2505,0.000335,0.00022,16
2506,0.000307,0.000194,16
2507,0.0003,0.000182,16
2508,0.000246,0.000133,16
2509,0.000146,0.000132,16
2510,0.000289,0.00022,16
2511,0.000251,0.000162,16
2512,0.000353,0.000244,16
2513,0.000228,0.000112,16
2514,0.000307,0.000196,16
2515,0.000301,0.000259,16
2516,0.000288,0.00022,16
2517,0.000254,0.000203,16
2518,0.000307,0.000251,16
2519,0.000287,0.000211,16
2520,0.00036,0.000351,16
2521,0.000155,0.00015,16
2522,0.000311,0.000234,16
2523,0.000297,0.000227,16
2524,0.000144,0.000132,16
2525,0.000256,0.000206,16
2526,0.000332,0.000247,16
2527,0.000281,0.000197,16
2528,0.000277,0.000252,16
2529,0.000155,0.000152,16
2530,0.000245,0.000176,16
2531,0.000176,5.6e-05,16
2532,0.000245,0.000129,16
2533,0.000177,0.000129,16
2534,0.000105,8.7e-05,16
2535,0.000285,0.000207,16
2536,0.000344,0.000254,16
2537,0.000249,0.000192,16
2538,0.000319,0.000236,16
2539,0.000295,0.000244,16
2540,0.000336,0.000257,16
2541,0.000308,0.000223,16
2542,0.000302,0.000227,16
2543,0.000251,0.00017,16
2544,0.000208,0.000202,16
2545,0.000106,9.1e-05,16
2546,0.000402,0.000385,16
2547,8.4e-05,6.6e-05,16
2548,0.000265,0.000209,16
2549,0.000366,0.000343,16
2550,0.000308,0.000229,16
2551,0.000307,0.000249,16
2552,0.00032,0.00024,16
2553,0.000259,0.000176,16
2554,0.000309,0.000199,16
2555,0.000185,6.8e-05,16
2556,0.000115,0.000104,16
2557,0.000257,0.000207,16
2558,0.000106,8.8e-05,16
2559,0.000284,0.000203,16
2560,0.000447,0.000449,16
2561,0.000272,0.000252,16
2562,0.00022,0.000166,16
2563,0.000302,0.000257,16
2564,0.000178,0.000121,16
2565,0.000121,0.000118,16
2566,0.00031,0.000231,16
2567,0.000405,0.000312,16
2568,0.000324,0.000239,16
2569,0.000324,0.00024,16
2570,0.000259,0.000203,16
2571,0.000306,0.000261,16
2572,0.000251,0.000177,16
2573,0.000257,0.000207,16
2574,0.000473,0.000401,16
2575,0.000246,0.000165,16
2576,0.000325,0.00024,16
2577,0.000259,0.00015,16
2578,0.000309,0.000198,16
2579,0.000187,7.1e-05,16
2580,0.000327,0.000296,16
2581,0.000381,0.000302,16
2582,0.000315,0.000222,16
2583,0.000142,0.000131,16
2584,0.000126,0.000103,16
2585,0.000248,0.000194,16
2586,0.000319,0.000232,16
2587,0.000309,0.000264,16
2588,0.000189,0.000147,16
2589,0.000118,0.000113,16
2590,0.000325,0.000237,16
2591,0.000287,0.000204,16
2592,0.00013,0.000108,16
2593,0.000257,0.000146,16
2594,0.000229,0.000178,16
2595,8.4e-05,6.5e-05,16
2596,0.000256,0.000181,16
2597,0.000389,0.000309,16
2598,0.000329,0.000241,16
2599,0.000413,0.00032,16
2600,0.000216,0.000191,16
2601,0.000261,0.000179,16
2602,0.000262,0.000207,16
2603,0.000294,0.000242,16
2604,0.000188,0.000147,16
2605,0.000367,0.000335,16
2606,0.000225,0.000172,16
2607,0.000279,0.000173,16
2608,0.000325,0.00024,16
2609,0.000265,0.000183,16
2610,0.000264,0.00021,16
2611,0.000309,0.000192,16
2612,0.00026,0.000187,16
2613,0.000256,0.000206,16
2614,0.000329,0.000241,16
2615,0.000245,0.000164,16
2616,0.000204,0.00018,16
2617,0.000267,0.000186,16
2618,0.00031,0.0002,16
2619,0.000301,0.000249,16
2620,0.000287,0.000216,16
2621,0.00031,0.000268,16
2622,0.000302,0.000271,16
2623,0.000279,0.000174,16
2624,0.000205,0.000181,16
2625,0.000238,0.000125,16
2626,0.000235,0.000186,16
2627,0.000304,0.000253,16
2628,0.000296,0.000227,16
2629,0.000419,0.000331,16
2630,0.000241,0.000189,16
2631,0.000303,0.000213,16
2632,0.000319,0.000238,16
2633,0.000257,0.000182,16
2634,0.000125,0.000116,16
2635,0.000305,0.000253,16
2636,0.000143,0.000132,16
2637,0.000282,0.000227,16
2638,0.000333,0.000245,16
2639,0.000275,0.000186,16
2640,0.000218,0.000193,16
2641,0.000267,0.000192,16
2642,0.000125,0.000115,16
2643,0.000309,0.000266,16
2644,0.000318,0.000282,16
2645,0.000312,0.000256,16
2646,0.000312,0.000214,16
2647,0.000276,0.000187,16
2648,0.000373,0.000369,16
2649,0.000316,0.000287,16
2650,0.00031,0.0002,16
2651,0.000292,0.000221,16
2652,0.000264,0.000191,16
2653,0.000421,0.000332,16
2654,0.000247,0.000195,16
2655,0.000395,0.000267,16
2656,0.000342,0.000243,16
2657,0.000272,0.000199,16
2658,0.000125,0.000116,16
2659,0.00031,0.000194,16
2660,0.000297,0.000229,16
2661,0.000175,0.000128,16
2662,0.000313,0.000255,16
2663,0.000244,0.000162,16
2664,0.000279,0.000253,16
2665,0.00026,0.000144,16
2666,0.000112,9.2e-05,16
2667,0.000311,0.000195,16
2668,0.000268,0.000213,16
2669,0.000144,0.000131,16
2670,0.000249,0.000198,16
2671,0.000143,0.000129,16
2672,0.000217,0.000191,16
2673,0.000108,9.2e-05,16
2674,0.000329,0.000308,16
2675,0.000277,0.000189,16
2676,0.000113,0.000103,16
2677,0.000116,0.000111,16
2678,0.00023,0.00016,16
2679,0.000243,0.000161,16
2680,0.000325,0.00024,16
2681,0.00032,0.000294,16
2682,0.000125,0.000114,16
2683,0.000311,0.000269,16
2684,0.000142,0.000131,16
2685,0.000312,0.000269,16
2686,0.00026,0.000193,16
2687,0.000276,0.000186,16
2688,0.000326,0.00024,16
2689,0.000332,0.000213,16
2690,0.000283,0.000201,16
2691,0.000311,0.00027,16
2692,0.000189,0.00015,16
2693,0.000424,0.000333,16
2694,0.000315,0.000285,16
2695,0.000382,0.000313,16
2696,0.000217,0.000191,16
2697,0.000322,0.000295,16
2698,0.000321,0.000241,16
2699,0.000305,0.000254,16
2700,0.00019,0.00015,16
2701,0.000397,0.000318,16
2702,0.00025,0.0002,16
2703,0.000417,0.000326,16
2704,0.000217,0.000192,16
2705,0.000247,0.000134,16
2706,0.000244,0.000198,16
2707,0.000279,0.000191,16
2708,0.00019,0.000151,16
2709,0.000115,0.00011,16
2710,0.000335,0.000246,16
2711,0.000386,0.000229,16
2712,0.000217,0.000191,16
2713,0.000263,0.000146,16
2714,0.000239,0.000195,16
2715,0.000188,7.5e-05,16
2716,0.00019,0.000151,16
2717,0.000371,0.000339,16
2718,0.000251,0.0002,16
2719,0.000396,0.000268,16
2720,0.000206,0.000182,16
2721,0.000276,0.000256,16
2722,0.000125,0.000115,16
2723,0.000312,0.000198,16
2724,0.00029,0.00022,16
2725,0.000175,0.000128,16
2726,0.000298,0.000184,16
2727,0.000282,0.000181,16
2728,0.000376,0.000285,16
2729,0.000327,0.000245,16
2730,0.000311,0.000201,16
2731,0.000416,0.000279,16
2732,0.000142,0.000131,16
2733,0.000329,0.000282,16
2734,0.000252,0.000202,16
2735,0.000302,0.000209,16
2736,0.000281,0.000255,16
2737,0.000155,0.000154,16
2738,0.000248,0.000179,16
2739,0.000445,0.000421,16
2740,0.000224,0.00015,16
2741,0.00029,0.000237,16
2742,0.000265,0.000201,16
2743,0.000128,0.000117,16
2744,0.000132,0.00011,16
2745,0.000251,0.000195,16
2746,0.000397,0.00038,16
2747,0.000191,7.9e-05,16
2748,0.000223,0.000146,16
2749,0.000176,0.000131,16
2750,0.000317,0.000239,16
2751,0.000128,0.000117,16
2752,0.000132,0.000111,16
2753,0.000109,9.3e-05,16
2754,0.000125,0.000114,16
2755,0.000307,0.000257,16
2756,0.000298,0.000232,16
2757,0.000145,0.000132,16
2758,0.000253,0.000204,16
2759,0.000397,0.00027,16
2760,0.000326,0.000241,16
2761,0.00033,0.000212,16
2762,0.000244,0.000198,16
2763,0.000311,0.000271,16
2764,0.000269,0.000214,16
2765,0.000332,0.000286,16
2766,0.000312,0.000254,16
2767,0.000242,0.000162,16
2768,0.000332,0.000278,16
2769,0.000156,0.000157,16
2770,0.000325,0.000303,16
2771,0.000281,0.000195,16
2772,0.000299,0.000232,16
2773,0.000288,0.000224,16
2774,0.000106,8.8e-05,16
2775,0.000128,0.000117,16
2776,0.000281,0.000255,16
2777,0.000328,0.000211,16
2778,0.000321,0.000242,16
2779,0.000108,9.6e-05,16
2780,0.000114,0.000103,16
2781,0.000317,0.000243,16
2782,0.000322,0.000294,16
2783,0.000398,0.000271,16
2784,0.000379,0.000378,16
2785,0.00028,0.000207,16
2786,0.000323,0.000243,16
2787,0.000191,8e-05,16
2788,0.000221,0.000142,16
2789,0.000292,0.00024,16
2790,0.000255,0.000206,16
2791,0.000295,0.000217,16
2792,0.000213,0.00021,16
2793,0.000246,0.000132,16
2794,0.000287,0.000206,16
2795,0.000293,0.000221,16
2796,0.00027,0.0002,16
2797,0.000115,0.00011,16
2798,0.00031,0.00021,16
2799,0.000278,0.000187,16
2800,0.000208,0.000184,16
2801,0.000279,0.000258,16
2802,0.000246,0.000201,16
2803,0.000309,0.000259,16
2804,0.000251,0.000132,16
2805,0.000314,0.00027,16
2806,0.000484,0.000403,16
2807,0.000302,0.000208,16
2808,0.000318,0.000237,16
2809,0.000329,0.000212,16
2810,0.000112,9.3e-05,16
2811,0.0003,0.00026,16
2812,0.000271,0.000201,16
2813,0.000321,0.000247,16
2814,0.000311,0.00021,16
2815,0.000278,0.000187,16
2816,0.000381,0.00038,16
2817,0.000329,0.000213,16
2818,0.000398,0.000379,16
2819,0.000191,7.9e-05,16
2820,0.000251,0.000132,16
2821,0.000292,0.00024,16
2822,0.000312,0.000254,16
2823,0.000302,0.000208,16
2824,0.000346,0.000298,16
2825,0.000282,0.000209,16
2826,0.000326,0.000303,16
2827,0.000282,0.000198,16
2828,0.000341,0.00027,16
2829,0.000259,0.000209,16
2830,0.000302,0.000187,16
2831,0.000281,0.000179,16
2832,0.000345,0.000247,16
2833,0.000329,0.000248,16
2834,0.000111,9.2e-05,16
2835,0.000437,0.000436,16
2836,0.000191,0.000151,16
2837,0.000145,0.000133,16
2838,0.000113,8.8e-05,16
2839,0.000388,0.000316,16
2840,0.000218,0.000192,16
2841,0.000329,0.000248,16
2842,0.000254,0.000212,16
2843,0.000191,7.9e-05,16
2844,0.000221,0.000141,16
2845,0.000176,0.000131,16
2846,0.000266,0.000204,16
2847,0.000297,0.000219,16
2848,0.000215,0.000213,16
2849,0.000251,0.000194,16
2850,0.000321,0.000232,16
2851,8.7e-05,6.9e-05,16
2852,0.000143,0.000132,16
2853,0.000338,0.000294,16
2854,0.00034,0.000252,16
2855,0.000389,0.000222,16
2856,0.000348,0.000301,16
2857,0.000251,0.000194,16
2858,0.000111,9.3e-05,16
2859,8.7e-05,7e-05,16
2860,0.000173,0.000115,16
2861,0.000176,0.000131,16
2862,0.000328,0.000302,16
2863,0.000145,0.00013,16
2864,0.000217,0.000215,16
2865,0.000156,0.000157,16
2866,0.000249,0.000181,16
2867,0.000448,0.000423,16
2868,0.00022,0.00014,16
2869,0.000115,0.000109,16
2870,0.000309,0.000209,16
2871,0.000278,0.000186,16
2872,0.000133,0.000112,16
2873,0.000275,0.000196,16
2874,0.000322,0.000232,16
2875,0.00019,7.9e-05,16
2876,0.000252,0.000132,16
2877,0.000259,0.000209,16
2878,0.000266,0.000205,16
2879,0.000298,0.000219,16
2880,0.000209,0.000186,16
2881,0.000156,0.000157,16
2882,0.000274,0.000225,16
2883,0.000313,0.000199,16
2884,0.000173,0.000116,16
2885,0.000145,0.000134,16
2886,0.000267,0.000205,16
2887,0.000301,0.000207,16
2888,0.000378,0.000286,16
2889,0.000156,0.000157,16
2890,0.000256,0.000215,16
2891,0.000302,0.000262,16
2892,0.000325,0.000294,16
2893,0.000259,0.000209,16
2894,0.000267,0.000205,16
2895,0.000278,0.000177,16
2896,0.000209,0.000187,16
2897,0.000156,0.000157,16
2898,0.00025,0.000182,16
2899,0.000313,0.000199,16
2900,0.000272,0.000203,16
2901,0.000115,0.000109,16
2902,0.00032,0.000242,16
2903,0.000319,0.000258,16
2904,0.000345,0.000248,16
2905,0.000247,0.000132,16
2906,0.000275,0.000227,16
2907,0.000191,8e-05,16
2908,0.00019,0.000151,16
2909,0.000339,0.000295,16
2910,0.000114,8.9e-05,16
2911,0.000278,0.000177,16
2912,0.000383,0.000383,16
2913,0.000277,0.000198,16
2914,0.000248,0.000202,16
2915,0.000283,0.000198,16
2916,0.0003,0.000234,16
2917,0.000322,0.000249,16
2918,0.000306,0.000193,16
2919,0.000421,0.000329,16
2920,0.000328,0.000243,16
2921,0.000264,0.000147,16
2922,0.000327,0.000304,16
2923,0.000191,8.1e-05,16
2924,0.000272,0.000219,16
2925,0.000295,0.000243,16
2926,0.000315,0.000258,16
2927,0.000145,0.00013,16
2928,0.000318,0.000236,16
2929,0.000284,0.00021,16
2930,0.000277,0.000228,16
2931,0.000191,8.1e-05,16
2932,0.000172,0.000114,16
2933,0.000293,0.000229,16
2934,0.000226,0.000156,16
2935,0.000279,0.000178,16
2936,0.000219,0.000192,16
2937,0.000251,0.000193,16
2938,0.000277,0.000228,16
2939,0.000292,0.000219,16
2940,0.000293,0.000222,16
2941,0.000313,0.000268,16
2942,0.000488,0.000411,16
2943,0.000395,0.000227,16
2944,0.000134,0.000113,16
2945,0.000329,0.000248,16
2946,0.000249,0.000182,16
2947,0.000292,0.000219,16
2948,0.000219,0.000138,16
2949,0.00026,0.00021,16
2950,0.000322,0.000245,16
2951,0.0004,0.000273,16
2952,0.00035,0.000303,16
2953,0.000246,0.000137,16
2954,0.000327,0.000248,16
2955,0.00045,0.000321,16
2956,0.000252,0.000131,16
2957,0.000114,0.000108,16
2958,0.000114,8.9e-05,16
2959,0.000277,0.000186,16
2960,0.000134,0.000113,16
2961,0.000277,0.000198,16
2962,0.000126,0.000115,16
2963,0.000314,0.000275,16
2964,0.000342,0.000271,16
2965,0.00043,0.000336,16
2966,0.000225,0.000156,16
2967,0.000302,0.000208,16
2968,0.000318,0.000236,16
2969,0.000325,0.0003,16
2970,0.000322,0.000232,16
2971,0.000191,8.1e-05,16
2972,0.000327,0.000297,16
2973,0.000403,0.000322,16
2974,0.000114,8.9e-05,16
2975,0.000298,0.00022,16
2976,0.000218,0.000216,16
2977,0.000265,0.000147,16
2978,0.00026,0.000221,16
2979,0.000453,0.000458,16
2980,0.000171,0.000113,16
2981,0.000367,0.000334,16
2982,0.000258,0.000211,16
2983,0.000146,0.00013,16
2984,0.00021,0.000188,16
2985,0.000277,0.000198,16
2986,0.00025,0.000183,16
2987,0.000107,9.5e-05,16
2988,0.000171,0.000113,16
2989,0.000294,0.000229,16
2990,0.000341,0.000253,16
2991,0.00024,0.00016,16
2992,0.000382,0.000292,16
2993,0.000325,0.0003,16
2994,0.000249,0.000202,16
2995,8.8e-05,7.1e-05,16
2996,0.000171,0.000113,16
2997,0.000259,0.000209,16
2998,0.000107,8.9e-05,16
2999,0.000302,0.000208,16
