kernel_id,importance_raw,importance_coral,change,change_pct,dilation
0,0.000481,0.000535,5.4e-05,11.15,1
1,0.000749,0.000738,-1.1e-05,-1.43,1
2,0.000628,0.000652,2.5e-05,3.94,1
3,0.000653,0.000813,0.00016,24.5,1
4,0.000464,0.000567,0.000103,22.08,1
5,0.000539,0.000586,4.7e-05,8.72,1
6,0.000428,0.00069,0.000261,60.99,1
7,0.001154,0.001128,-2.6e-05,-2.22,1
8,0.000481,0.000449,-3.2e-05,-6.67,1
9,0.000976,0.001006,3e-05,3.1,1
10,0.000628,0.000632,5e-06,0.72,1
11,0.000653,0.000719,6.6e-05,10.06,1
12,0.000464,0.000513,4.9e-05,10.48,1
13,0.000823,0.000913,9e-05,10.9,1
14,0.000869,0.000905,3.6e-05,4.1,1
15,0.001471,0.001609,0.000138,9.39,1
16,0.000432,0.00065,0.000219,50.63,1
17,0.000602,0.000468,-0.000134,-22.27,1
18,0.000559,0.000521,-3.8e-05,-6.87,1
19,0.000743,0.000547,-0.000197,-26.46,1
20,0.000384,0.000429,4.6e-05,11.9,1
21,0.000465,0.000332,-0.000133,-28.69,1
22,0.000566,0.000465,-0.000101,-17.81,1
23,0.000999,0.001118,0.000118,11.86,1
24,0.000337,0.000266,-7.1e-05,-20.98,1
25,0.000718,0.000754,3.6e-05,5.03,1
26,0.000725,0.001013,0.000288,39.66,1
27,0.000554,0.00052,-3.4e-05,-6.1,1
28,0.000434,0.000555,0.00012,27.72,1
29,0.000553,0.000544,-8e-06,-1.52,1
30,0.0009,0.000801,-9.9e-05,-11.02,1
31,0.001854,0.001747,-0.000107,-5.8,1
32,0.000381,0.000506,0.000125,32.79,1
33,0.000976,0.000985,9e-06,0.96,1
34,0.000628,0.000637,1e-05,1.52,1
35,0.000551,0.000713,0.000163,29.59,1
36,0.000499,0.00052,2.1e-05,4.16,1
37,0.000465,0.00047,5e-06,1.09,1
38,0.000638,0.000659,2.2e-05,3.39,1
39,0.001383,0.001323,-5.9e-05,-4.28,1
40,0.000481,0.000459,-2.2e-05,-4.59,1
41,0.000749,0.000701,-4.8e-05,-6.41,1
42,0.000427,0.000634,0.000206,48.29,1
43,0.000471,0.000497,2.7e-05,5.71,1
44,0.000464,0.000492,2.8e-05,6.01,1
45,0.000632,0.000632,0.0,0.05,1
46,0.000609,0.000612,3e-06,0.48,1
47,0.001758,0.001693,-6.5e-05,-3.69,1
48,0.000436,0.000484,4.8e-05,11.12,1
49,0.000571,0.000526,-4.5e-05,-7.82,1
50,0.000593,0.000525,-6.8e-05,-11.5,1
51,0.000555,0.000632,7.7e-05,13.87,1
52,0.000445,0.00046,1.5e-05,3.32,1
53,0.000465,0.000491,2.6e-05,5.57,1
54,0.000768,0.000762,-7e-06,-0.87,1
55,0.000753,0.000711,-4.2e-05,-5.61,1
56,0.000436,0.000452,1.6e-05,3.66,1
57,0.000638,0.000582,-5.6e-05,-8.84,1
58,0.000559,0.000583,2.4e-05,4.31,1
59,0.000743,0.000862,0.000119,16.01,1
60,0.000456,0.000528,7.3e-05,15.95,1
61,0.000465,0.000491,2.6e-05,5.52,1
62,0.0009,0.000855,-4.5e-05,-5.0,1
63,0.000838,0.000736,-0.000102,-12.18,1
64,0.000337,0.000272,-6.5e-05,-19.36,1
65,0.000675,0.00078,0.000105,15.51,1
66,0.000813,0.000912,9.9e-05,12.19,1
67,0.000713,0.000498,-0.000215,-30.12,1
68,0.000456,0.000501,4.6e-05,10.03,1
69,0.000594,0.000595,1e-06,0.09,1
70,0.000869,0.000848,-2.1e-05,-2.38,1
71,0.001443,0.001441,-2e-06,-0.15,1
72,0.000462,0.000473,1.1e-05,2.38,1
73,0.000602,0.000561,-4.1e-05,-6.79,1
74,0.000592,0.000613,2.1e-05,3.61,1
75,0.000551,0.000652,0.000102,18.52,1
76,0.000456,0.000457,1e-06,0.26,1
77,0.000553,0.000546,-7e-06,-1.18,1
78,0.000768,0.00077,1e-06,0.16,1
79,0.000753,0.000739,-1.4e-05,-1.84,1
80,0.000337,0.000282,-5.5e-05,-16.36,1
81,0.000768,0.000705,-6.3e-05,-8.22,1
82,0.000603,0.000693,9e-05,14.97,1
83,0.000555,0.000567,1.2e-05,2.22,1
84,0.000384,0.000389,5e-06,1.26,1
85,0.000539,0.00056,2.1e-05,3.81,1
86,0.0009,0.000867,-3.3e-05,-3.64,1
87,0.001854,0.001842,-1.2e-05,-0.65,1
88,0.000479,0.000511,3.1e-05,6.56,1
89,0.000718,0.000752,3.5e-05,4.85,1
90,0.000593,0.000585,-8e-06,-1.37,1
91,0.000722,0.000731,9e-06,1.23,1
92,0.000384,0.000375,-9e-06,-2.25,1
93,0.000426,0.00043,4e-06,1.03,1
94,0.000881,0.001009,0.000129,14.61,1
95,0.001383,0.001392,9e-06,0.64,1
96,0.000337,0.000286,-5.1e-05,-15.06,1
97,0.000449,0.000494,4.5e-05,10.03,1
98,0.000427,0.000465,3.8e-05,8.89,1
99,0.000713,0.000611,-0.000102,-14.25,1
100,0.000445,0.000456,1.1e-05,2.49,1
101,0.000539,0.000552,1.3e-05,2.38,1
102,0.000881,0.000977,9.7e-05,10.97,1
103,0.001471,0.001553,8.3e-05,5.63,1
104,0.000381,0.000474,9.2e-05,24.15,1
105,0.000449,0.000482,3.3e-05,7.36,1
106,0.000576,0.000597,2.1e-05,3.7,1
107,0.000653,0.000637,-1.5e-05,-2.35,1
108,0.000502,0.000521,1.9e-05,3.81,1
109,0.000632,0.00065,1.8e-05,2.87,1
110,0.000699,0.000548,-0.000151,-21.62,1
111,0.001471,0.001539,6.8e-05,4.64,1
112,0.000432,0.000489,5.7e-05,13.26,1
113,0.00086,0.000936,7.6e-05,8.84,1
114,0.000725,0.00076,3.5e-05,4.79,1
115,0.000524,0.000459,-6.5e-05,-12.43,1
116,0.000464,0.000497,3.3e-05,7.02,1
117,0.000426,0.000428,2e-06,0.47,1
118,0.000609,0.000601,-9e-06,-1.43,1
119,0.000753,0.000754,0.0,0.07,1
120,0.000436,0.000435,-0.0,-0.07,1
121,0.000449,0.000476,2.7e-05,6.0,1
122,0.000574,0.000593,1.8e-05,3.18,1
123,0.000706,0.000683,-2.4e-05,-3.34,1
124,0.000384,0.000371,-1.2e-05,-3.2,1
125,0.000465,0.000509,4.4e-05,9.46,1
126,0.000768,0.000782,1.4e-05,1.83,1
127,0.001094,0.000941,-0.000153,-13.97,1
128,0.000481,0.000473,-8e-06,-1.74,1
129,0.000571,0.000526,-4.4e-05,-7.79,1
130,0.000576,0.000589,1.3e-05,2.31,1
131,0.000722,0.000723,0.0,0.04,1
132,0.000438,0.000468,3e-05,6.79,1
133,0.000465,0.000508,4.3e-05,9.33,1
134,0.000869,0.000821,-4.8e-05,-5.53,1
135,0.001491,0.001283,-0.000208,-13.95,1
136,0.000411,0.000408,-4e-06,-0.87,1
137,0.00086,0.000908,4.9e-05,5.66,1
138,0.000725,0.000751,2.6e-05,3.58,1
139,0.000471,0.000511,4e-05,8.57,1
140,0.000464,0.000489,2.4e-05,5.25,1
141,0.000632,0.000648,1.6e-05,2.52,1
142,0.000699,0.00067,-2.8e-05,-4.07,1
143,0.001758,0.001743,-1.5e-05,-0.83,1
144,0.000256,0.000325,6.9e-05,27.19,1
145,0.000571,0.00053,-4.1e-05,-7.22,1
146,0.000574,0.000589,1.5e-05,2.59,1
147,0.000524,0.000483,-4.2e-05,-7.92,1
148,0.000445,0.000453,8e-06,1.74,1
149,0.000426,0.000419,-7e-06,-1.61,1
150,0.000428,0.000384,-4.5e-05,-10.45,1
151,0.001383,0.001401,1.8e-05,1.32,1
152,0.000432,0.00047,3.8e-05,8.77,1
153,0.000571,0.00053,-4.1e-05,-7.2,1
154,0.000725,0.000746,2.1e-05,2.83,1
155,0.000555,0.000565,1.1e-05,1.9,1
156,0.000456,0.000451,-4e-06,-0.96,1
157,0.000529,0.000549,2e-05,3.71,1
158,0.000609,0.000603,-7e-06,-1.09,1
159,0.000838,0.000811,-2.7e-05,-3.22,1
160,0.000411,0.000409,-2e-06,-0.51,1
161,0.000749,0.000686,-6.3e-05,-8.37,1
162,0.000574,0.000593,1.9e-05,3.26,1
163,0.000524,0.000494,-3e-05,-5.64,1
164,0.000438,0.000464,2.6e-05,5.9,1
165,0.000553,0.000558,5e-06,0.85,1
166,0.0009,0.000879,-2.1e-05,-2.3,1
167,0.000999,0.001072,7.3e-05,7.28,1
168,0.000256,0.000309,5.3e-05,20.8,1
169,0.000682,0.000737,5.4e-05,7.97,1
170,0.000559,0.00058,2.1e-05,3.76,1
171,0.000842,0.000877,3.5e-05,4.19,1
172,0.000499,0.00055,5.1e-05,10.16,1
173,0.000465,0.000511,4.6e-05,9.85,1
174,0.0009,0.000881,-1.9e-05,-2.13,1
175,0.001383,0.001417,3.4e-05,2.47,1
176,0.000408,0.000474,6.6e-05,16.24,1
177,0.000976,0.000955,-2.1e-05,-2.13,1
178,0.000603,0.000657,5.4e-05,9.04,1
179,0.000705,0.000698,-7e-06,-1.0,1
180,0.000499,0.000546,4.7e-05,9.46,1
181,0.000618,0.000617,-1e-06,-0.24,1
182,0.000609,0.000609,-0.0,-0.05,1
183,0.001094,0.001024,-7.1e-05,-6.45,1
184,0.000381,0.000448,6.6e-05,17.4,1
185,0.000682,0.000729,4.7e-05,6.85,1
186,0.000628,0.000625,-3e-06,-0.42,1
187,0.000706,0.000687,-1.9e-05,-2.71,1
188,0.000456,0.000454,-1e-06,-0.31,1
189,0.000618,0.000621,2e-06,0.35,1
190,0.000638,0.000659,2.1e-05,3.28,1
191,0.000838,0.000832,-6e-06,-0.72,1
192,0.000549,0.000519,-3e-05,-5.42,1
193,0.000675,0.00071,3.5e-05,5.26,1
194,0.000628,0.000625,-2e-06,-0.33,1
195,0.000706,0.000693,-1.3e-05,-1.84,1
196,0.000464,0.000489,2.5e-05,5.32,1
197,0.000941,0.000874,-6.7e-05,-7.15,1
198,0.000638,0.000658,2e-05,3.13,1
199,0.000753,0.000759,6e-06,0.84,1
200,0.000337,0.000308,-2.9e-05,-8.67,1
201,0.000675,0.000705,3e-05,4.41,1
202,0.000628,0.000626,-2e-06,-0.24,1
203,0.000842,0.000879,3.7e-05,4.34,1
204,0.000384,0.000371,-1.3e-05,-3.36,1
205,0.000618,0.000623,5e-06,0.78,1
206,0.000644,0.00064,-4e-06,-0.66,1
207,0.001094,0.001052,-4.2e-05,-3.88,1
208,0.000381,0.000432,5e-05,13.17,1
209,0.000638,0.000639,1e-06,0.14,1
210,0.000766,0.000824,5.8e-05,7.61,1
211,0.000554,0.000583,2.9e-05,5.16,1
212,0.000349,0.000361,1.1e-05,3.2,1
213,0.000594,0.000628,3.4e-05,5.79,1
214,0.000638,0.000658,2e-05,3.14,1
215,0.001094,0.001073,-2.1e-05,-1.96,1
216,0.000433,0.000432,-1e-06,-0.26,1
217,0.000585,0.000521,-6.4e-05,-10.94,1
218,0.000576,0.000587,1.1e-05,1.94,1
219,0.000713,0.000685,-2.8e-05,-3.88,1
220,0.000502,0.000487,-1.5e-05,-3.03,1
221,0.000941,0.000891,-5e-05,-5.32,1
222,0.000768,0.000783,1.4e-05,1.86,1
223,0.000999,0.001058,5.9e-05,5.93,1
224,0.000337,0.000307,-3e-05,-8.76,1
225,0.000602,0.000625,2.4e-05,3.92,1
226,0.000574,0.000598,2.3e-05,4.07,1
227,0.000722,0.000706,-1.6e-05,-2.23,1
228,0.000466,0.000499,3.3e-05,7.17,1
229,0.000941,0.000899,-4.2e-05,-4.47,1
230,0.000638,0.000656,1.9e-05,2.91,1
231,0.000999,0.001046,4.7e-05,4.66,1
232,0.000433,0.000425,-8e-06,-1.79,1
233,0.000449,0.000478,2.9e-05,6.44,1
234,0.000603,0.000651,4.8e-05,8.03,1
235,0.000842,0.000869,2.7e-05,3.16,1
236,0.000349,0.000355,6e-06,1.61,1
237,0.000823,0.000806,-1.8e-05,-2.15,1
238,0.000609,0.000612,3e-06,0.48,1
239,0.003456,0.002845,-0.00061,-17.66,1
240,0.000479,0.000463,-1.7e-05,-3.51,1
241,0.000976,0.000956,-2e-05,-2.07,1
242,0.000725,0.000722,-4e-06,-0.53,1
243,0.000842,0.000864,2.2e-05,2.56,1
244,0.000384,0.000369,-1.5e-05,-3.84,1
245,0.000529,0.000534,5e-06,0.86,1
246,0.000644,0.000636,-8e-06,-1.2,1
247,0.000999,0.001032,3.3e-05,3.31,1
248,0.000549,0.000512,-3.6e-05,-6.62,1
249,0.000602,0.000642,4e-05,6.73,1
250,0.000628,0.000617,-1e-05,-1.67,1
251,0.000713,0.000703,-1e-05,-1.36,1
252,0.000445,0.000461,1.6e-05,3.62,1
253,0.000465,0.000506,4.1e-05,8.78,1
254,0.001427,0.001411,-1.6e-05,-1.13,1
255,0.001491,0.001366,-0.000125,-8.38,1
256,0.000432,0.000455,2.4e-05,5.52,1
257,0.000749,0.000697,-5.2e-05,-6.97,1
258,0.000399,0.000385,-1.5e-05,-3.66,1
259,0.000524,0.000532,8e-06,1.46,1
260,0.000456,0.000451,-5e-06,-1.08,1
261,0.000632,0.000633,1e-06,0.17,1
262,0.000428,0.000384,-4.4e-05,-10.33,1
263,0.001154,0.00108,-7.4e-05,-6.39,1
264,0.000432,0.000452,2e-05,4.73,1
265,0.000749,0.000707,-4.2e-05,-5.62,1
266,0.000574,0.000594,2e-05,3.51,1
267,0.000555,0.000568,1.4e-05,2.47,1
268,0.000445,0.00046,1.5e-05,3.3,1
269,0.000941,0.000902,-3.8e-05,-4.09,1
270,0.000869,0.000821,-4.8e-05,-5.56,1
271,0.000838,0.00086,2.2e-05,2.68,1
272,0.000462,0.000442,-2e-05,-4.32,1
273,0.000675,0.000703,2.8e-05,4.09,1
274,0.000725,0.000723,-3e-06,-0.37,1
275,0.000524,0.000533,9e-06,1.74,1
276,0.000499,0.000541,4.2e-05,8.46,1
277,0.000618,0.000622,3e-06,0.5,1
278,0.000881,0.000971,9e-05,10.26,1
279,0.000999,0.001028,2.9e-05,2.92,1
280,0.000481,0.000488,8e-06,1.57,1
281,0.000638,0.000637,-1e-06,-0.21,1
282,0.000813,0.000883,6.9e-05,8.5,1
283,0.000705,0.000726,2.2e-05,3.06,1
284,0.000499,0.000538,3.9e-05,7.84,1
285,0.000426,0.00042,-5e-06,-1.26,1
286,0.000881,0.000963,8.2e-05,9.35,1
287,0.001443,0.001485,4.2e-05,2.92,1
288,0.000337,0.000311,-2.6e-05,-7.7,1
289,0.000585,0.000549,-3.6e-05,-6.2,1
290,0.000593,0.000591,-2e-06,-0.39,1
291,0.000713,0.000708,-4e-06,-0.62,1
292,0.000499,0.000534,3.5e-05,7.05,1
293,0.000529,0.000527,-2e-06,-0.31,1
294,0.000767,0.000806,3.9e-05,5.12,1
295,0.003456,0.003297,-0.000159,-4.6,1
296,0.000481,0.000491,1.1e-05,2.2,1
297,0.000682,0.00071,2.8e-05,4.07,1
298,0.000427,0.000434,7e-06,1.61,1
299,0.000471,0.000511,4e-05,8.54,1
300,0.000438,0.000464,2.5e-05,5.81,1
301,0.000632,0.000635,3e-06,0.45,1
302,0.000644,0.00063,-1.4e-05,-2.18,1
303,0.001471,0.001513,4.2e-05,2.89,1
304,0.000549,0.000527,-2.1e-05,-3.84,1
305,0.000675,0.0007,2.6e-05,3.79,1
306,0.000725,0.00073,4e-06,0.58,1
307,0.000653,0.000629,-2.3e-05,-3.59,1
308,0.000456,0.000455,-1e-06,-0.16,1
309,0.001006,0.001027,2.1e-05,2.05,1
310,0.000699,0.000735,3.6e-05,5.13,1
311,0.001471,0.001505,3.4e-05,2.31,1
312,0.000408,0.000454,4.6e-05,11.17,1
313,0.000602,0.00065,4.8e-05,7.98,1
314,0.000576,0.000575,-1e-06,-0.13,1
315,0.000555,0.000565,1e-05,1.75,1
316,0.000438,0.000459,2.1e-05,4.7,1
317,0.000618,0.000618,-0.0,-0.01,1
318,0.000638,0.000658,2e-05,3.14,1
319,0.001854,0.001784,-7e-05,-3.77,1
320,0.000462,0.000444,-1.7e-05,-3.74,1
321,0.000768,0.000757,-1.1e-05,-1.44,1
322,0.000593,0.000602,9e-06,1.58,1
323,0.000842,0.000865,2.2e-05,2.67,1
324,0.000438,0.000455,1.7e-05,3.96,1
325,0.000618,0.00062,2e-06,0.27,1
326,0.000644,0.000632,-1.2e-05,-1.86,1
327,0.001094,0.001087,-8e-06,-0.71,1
328,0.000408,0.000443,3.5e-05,8.62,1
329,0.000585,0.000565,-2.1e-05,-3.57,1
330,0.000559,0.000589,3e-05,5.34,1
331,0.000555,0.000563,8e-06,1.5,1
332,0.000384,0.000371,-1.3e-05,-3.41,1
333,0.000603,0.000547,-5.6e-05,-9.25,1
334,0.000609,0.000618,8e-06,1.39,1
335,0.001154,0.001102,-5.1e-05,-4.45,1
336,0.000381,0.000423,4.2e-05,10.89,1
337,0.000585,0.000568,-1.7e-05,-2.94,1
338,0.000399,0.000394,-6e-06,-1.39,1
339,0.000524,0.000547,2.3e-05,4.39,1
340,0.000438,0.000453,1.5e-05,3.37,1
341,0.000553,0.000544,-9e-06,-1.66,1
342,0.000609,0.000618,9e-06,1.48,1
343,0.001491,0.001413,-7.8e-05,-5.24,1
344,0.000549,0.000538,-1.1e-05,-2.0,1
345,0.000602,0.000659,5.7e-05,9.5,1
346,0.000813,0.000872,5.8e-05,7.17,1
347,0.000842,0.00086,1.8e-05,2.17,1
348,0.000384,0.000371,-1.3e-05,-3.27,1
349,0.001006,0.001045,3.8e-05,3.8,1
350,0.001427,0.001505,7.8e-05,5.46,1
351,0.000999,0.001029,3e-05,2.96,1
352,0.000433,0.000435,2e-06,0.48,1
353,0.000585,0.000573,-1.3e-05,-2.17,1
354,0.000399,0.000394,-5e-06,-1.2,1
355,0.000713,0.000709,-3e-06,-0.47,1
356,0.000464,0.000486,2.1e-05,4.56,1
357,0.000465,0.000502,3.7e-05,8.07,1
358,0.000638,0.00066,2.2e-05,3.49,1
359,0.001443,0.001498,5.5e-05,3.83,1
360,0.000432,0.000439,7e-06,1.71,1
361,0.000585,0.000576,-1e-05,-1.64,1
362,0.000725,0.000736,1.1e-05,1.46,1
363,0.000554,0.000583,2.9e-05,5.19,1
364,0.000499,0.000533,3.4e-05,6.76,1
365,0.000529,0.000529,0.0,0.07,1
366,0.000566,0.000557,-9e-06,-1.61,1
367,0.001154,0.001116,-3.7e-05,-3.23,1
368,0.000337,0.000312,-2.5e-05,-7.43,1
369,0.000682,0.000701,1.9e-05,2.72,1
370,0.000559,0.000587,2.8e-05,5.0,1
371,0.000653,0.000629,-2.4e-05,-3.71,1
372,0.000466,0.0005,3.4e-05,7.36,1
373,0.000529,0.000531,2e-06,0.3,1
374,0.000638,0.000662,2.4e-05,3.71,1
375,0.001383,0.001415,3.3e-05,2.35,1
376,0.000381,0.000415,3.4e-05,8.81,1
377,0.000749,0.000708,-4.1e-05,-5.46,1
378,0.000559,0.000584,2.5e-05,4.53,1
379,0.000705,0.000743,3.8e-05,5.43,1
380,0.000466,0.000496,3.1e-05,6.6,1
381,0.000632,0.000634,2e-06,0.39,1
382,0.000768,0.000781,1.3e-05,1.72,1
383,0.001854,0.001809,-4.5e-05,-2.42,1
384,0.000256,0.000307,5.1e-05,20.05,1
385,0.000602,0.000657,5.6e-05,9.26,1
386,0.000603,0.000652,5e-05,8.23,1
387,0.000471,0.000507,3.6e-05,7.66,1
388,0.000384,0.000371,-1.3e-05,-3.37,1
389,0.000603,0.000553,-4.9e-05,-8.14,1
390,0.000768,0.000782,1.3e-05,1.73,1
391,0.001491,0.001463,-2.8e-05,-1.88,1
392,0.000481,0.000494,1.3e-05,2.74,1
393,0.000768,0.000763,-6e-06,-0.73,1
394,0.000628,0.000613,-1.4e-05,-2.25,1
395,0.000551,0.00058,2.9e-05,5.35,1
396,0.000604,0.000521,-8.2e-05,-13.65,1
397,0.000426,0.000415,-1.1e-05,-2.55,1
398,0.000699,0.000739,4e-05,5.73,1
399,0.001471,0.0015,2.9e-05,1.99,1
400,0.000381,0.000408,2.7e-05,7.03,1
401,0.000682,0.000698,1.5e-05,2.25,1
402,0.000628,0.000614,-1.3e-05,-2.13,1
403,0.000842,0.000858,1.5e-05,1.83,1
404,0.000349,0.000349,-0.0,-0.13,1
405,0.000426,0.000415,-1.1e-05,-2.55,1
406,0.000609,0.000618,9e-06,1.41,1
407,0.000753,0.000764,1.1e-05,1.49,1
408,0.000432,0.000438,6e-06,1.41,1
409,0.000768,0.000772,4e-06,0.49,1
410,0.000427,0.000427,-1e-06,-0.14,1
411,0.000653,0.000631,-2.2e-05,-3.4,1
412,0.000499,0.000528,2.9e-05,5.84,1
413,0.000426,0.000413,-1.3e-05,-2.95,1
414,0.000609,0.000619,9e-06,1.55,1
415,0.001854,0.001823,-3.2e-05,-1.71,1
416,0.000408,0.00044,3.2e-05,7.76,1
417,0.000749,0.00071,-3.9e-05,-5.15,1
418,0.000725,0.000728,2e-06,0.33,1
419,0.000653,0.000631,-2.2e-05,-3.37,1
420,0.000499,0.000527,2.8e-05,5.57,1
421,0.000632,0.000635,3e-06,0.49,1
422,0.000609,0.00062,1e-05,1.67,1
423,0.001383,0.001415,3.2e-05,2.31,1
424,0.000462,0.000466,5e-06,0.98,1
425,0.000768,0.000782,1.3e-05,1.73,1
426,0.000574,0.000598,2.4e-05,4.22,1
427,0.000842,0.000856,1.4e-05,1.68,1
428,0.000438,0.000453,1.5e-05,3.35,1
429,0.000618,0.00062,2e-06,0.3,1
430,0.000428,0.000392,-3.7e-05,-8.54,1
431,0.001491,0.001484,-8e-06,-0.51,1
432,0.000256,0.0003,4.5e-05,17.46,1
433,0.000638,0.000643,4e-06,0.67,1
434,0.000592,0.000634,4.3e-05,7.24,1
435,0.000713,0.000714,2e-06,0.24,1
436,0.000456,0.000451,-5e-06,-1.11,1
437,0.000426,0.000417,-9e-06,-2.11,1
438,0.000566,0.000564,-2e-06,-0.39,1
439,0.001491,0.001507,1.5e-05,1.03,1
440,0.000411,0.000406,-5e-06,-1.22,1
441,0.000449,0.000474,2.5e-05,5.47,1
442,0.000559,0.000581,2.2e-05,3.95,1
443,0.000713,0.000718,5e-06,0.74,1
444,0.000384,0.000372,-1.2e-05,-3.12,1
445,0.000529,0.00053,1e-06,0.12,1
446,0.0009,0.000883,-1.6e-05,-1.83,1
447,0.001383,0.001417,3.4e-05,2.49,1
448,0.000337,0.000314,-2.3e-05,-6.89,1
449,0.000718,0.000766,4.9e-05,6.77,1
450,0.000574,0.000597,2.3e-05,4.02,1
451,0.000555,0.000565,1e-05,1.8,1
452,0.000629,0.000672,4.3e-05,6.77,1
453,0.000823,0.000793,-3.1e-05,-3.73,1
454,0.000638,0.000661,2.4e-05,3.71,1
455,0.000838,0.000881,4.3e-05,5.19,1
456,0.000479,0.000456,-2.3e-05,-4.87,1
457,0.000749,0.000713,-3.5e-05,-4.72,1
458,0.000593,0.00062,2.7e-05,4.49,1
459,0.000554,0.000578,2.4e-05,4.27,1
460,0.000434,0.000492,5.7e-05,13.23,1
461,0.000632,0.000634,3e-06,0.43,1
462,0.000699,0.00074,4.1e-05,5.85,1
463,0.001471,0.001491,2e-05,1.36,1
464,0.000432,0.000437,6e-06,1.32,1
465,0.000449,0.00047,2.1e-05,4.68,1
466,0.000603,0.000649,4.6e-05,7.63,1
467,0.000705,0.000746,4.1e-05,5.86,1
468,0.000434,0.000488,5.4e-05,12.38,1
469,0.000529,0.000528,-1e-06,-0.13,1
470,0.000428,0.000399,-2.9e-05,-6.87,1
471,0.001758,0.001763,6e-06,0.32,1
472,0.000481,0.00049,9e-06,1.84,1
473,0.000682,0.000693,1.1e-05,1.6,1
474,0.000399,0.000393,-6e-06,-1.54,1
475,0.000722,0.000678,-4.4e-05,-6.11,1
476,0.000466,0.0005,3.5e-05,7.43,1
477,0.000426,0.000419,-6e-06,-1.51,1
478,0.000428,0.000401,-2.7e-05,-6.32,1
479,0.001094,0.001101,7e-06,0.63,1
480,0.000462,0.000468,6e-06,1.37,1
481,0.000602,0.000656,5.4e-05,9.04,1
482,0.000427,0.000423,-4e-06,-0.94,1
483,0.000653,0.000631,-2.2e-05,-3.36,1
484,0.000464,0.00049,2.5e-05,5.48,1
485,0.000941,0.000909,-3.2e-05,-3.38,1
486,0.000609,0.000619,1e-05,1.57,1
487,0.001758,0.001778,2e-05,1.16,1
488,0.000549,0.000547,-2e-06,-0.34,1
489,0.000571,0.000529,-4.2e-05,-7.42,1
490,0.000813,0.000865,5.2e-05,6.38,1
491,0.000554,0.000574,2e-05,3.57,1
492,0.000434,0.000491,5.7e-05,13.11,1
493,0.000632,0.000636,5e-06,0.73,1
494,0.000767,0.000807,4e-05,5.21,1
495,0.001491,0.00152,2.9e-05,1.92,1
496,0.000436,0.000416,-2e-05,-4.54,1
497,0.000449,0.000468,1.9e-05,4.17,1
498,0.000559,0.000581,2.2e-05,3.91,1
499,0.000713,0.000724,1.1e-05,1.53,1
500,0.000456,0.000451,-5e-06,-1.06,1
501,0.000529,0.00053,1e-06,0.12,1
502,0.0009,0.000886,-1.4e-05,-1.56,1
503,0.000753,0.000768,1.5e-05,2.02,1
504,0.000256,0.000292,3.7e-05,14.42,1
505,0.000718,0.000767,4.9e-05,6.85,1
506,0.000574,0.000597,2.3e-05,3.93,1
507,0.000555,0.000567,1.2e-05,2.25,1
508,0.000466,0.000498,3.2e-05,6.87,1
509,0.000529,0.00053,1e-06,0.22,1
510,0.000609,0.000619,1e-05,1.57,1
511,0.000753,0.000772,1.9e-05,2.47,1
512,0.000256,0.000289,3.3e-05,12.99,1
513,0.000602,0.000656,5.4e-05,9.03,1
514,0.000559,0.00058,2.1e-05,3.72,1
515,0.000555,0.000567,1.2e-05,2.16,1
516,0.000604,0.000543,-6.1e-05,-10.03,1
517,0.000823,0.000793,-3e-05,-3.66,1
518,0.000428,0.000405,-2.4e-05,-5.54,1
519,0.000753,0.000774,2.1e-05,2.81,1
520,0.000432,0.000436,4e-06,0.9,1
521,0.000638,0.00064,2e-06,0.32,1
522,0.000725,0.000722,-3e-06,-0.42,1
523,0.000653,0.000631,-2.2e-05,-3.32,1
524,0.000464,0.000489,2.4e-05,5.27,1
525,0.000823,0.000796,-2.8e-05,-3.34,1
526,0.000869,0.000824,-4.5e-05,-5.16,1
527,0.000838,0.000884,4.6e-05,5.5,1
528,0.000462,0.000472,1.1e-05,2.28,1
529,0.000585,0.00058,-5e-06,-0.91,1
530,0.000399,0.000394,-6e-06,-1.43,1
531,0.000524,0.000554,3e-05,5.73,1
532,0.000456,0.00045,-5e-06,-1.17,1
533,0.000603,0.000559,-4.3e-05,-7.17,1
534,0.0009,0.000888,-1.2e-05,-1.35,1
535,0.000999,0.00103,3.1e-05,3.07,1
536,0.000432,0.000436,4e-06,0.93,1
537,0.000449,0.000466,1.7e-05,3.76,1
538,0.000725,0.000723,-2e-06,-0.33,1
539,0.000713,0.000726,1.3e-05,1.89,1
540,0.000438,0.000455,1.7e-05,3.85,1
541,0.001006,0.001062,5.5e-05,5.51,1
542,0.000767,0.000813,4.6e-05,6.0,1
543,0.001383,0.001416,3.3e-05,2.42,1
544,0.000432,0.000435,3e-06,0.79,1
545,0.000585,0.000583,-3e-06,-0.49,1
546,0.000725,0.000723,-2e-06,-0.32,1
547,0.000653,0.000632,-2e-05,-3.12,1
548,0.000434,0.000495,6e-05,13.83,1
549,0.001006,0.001071,6.4e-05,6.41,1
550,0.0009,0.00089,-1e-05,-1.12,1
551,0.001383,0.001418,3.6e-05,2.57,1
552,0.000462,0.000469,7e-06,1.62,1
553,0.00086,0.000875,1.6e-05,1.83,1
554,0.000593,0.000615,2.2e-05,3.63,1
555,0.000471,0.000499,2.8e-05,5.97,1
556,0.000349,0.000347,-3e-06,-0.8,1
557,0.000941,0.000915,-2.6e-05,-2.78,1
558,0.000428,0.000406,-2.2e-05,-5.13,1
559,0.001471,0.00149,2e-05,1.33,1
560,0.000256,0.000288,3.2e-05,12.49,1
561,0.000638,0.00064,2e-06,0.34,1
562,0.000603,0.000646,4.3e-05,7.14,1
563,0.000743,0.000865,0.000122,16.36,1
564,0.000438,0.000453,1.5e-05,3.5,1
565,0.000618,0.000622,3e-06,0.53,1
566,0.000609,0.00062,1e-05,1.66,1
567,0.001443,0.001511,6.8e-05,4.72,1
568,0.000256,0.000286,3e-05,11.84,1
569,0.000718,0.000766,4.8e-05,6.74,1
570,0.000593,0.000613,2e-05,3.32,1
571,0.000524,0.00056,3.6e-05,6.89,1
572,0.000384,0.000373,-1.1e-05,-2.79,1
573,0.000823,0.000795,-2.8e-05,-3.38,1
574,0.000881,0.000964,8.3e-05,9.43,1
575,0.001758,0.001796,3.8e-05,2.17,1
576,0.000436,0.000417,-1.9e-05,-4.43,1
577,0.000749,0.000709,-4e-05,-5.31,1
578,0.000603,0.00064,3.8e-05,6.26,1
579,0.000722,0.000673,-4.9e-05,-6.76,1
580,0.000445,0.000466,2.1e-05,4.78,1
581,0.000603,0.000563,-3.9e-05,-6.53,1
582,0.000638,0.00066,2.2e-05,3.42,1
583,0.001094,0.001108,1.3e-05,1.23,1
584,0.000432,0.000436,5e-06,1.12,1
585,0.000749,0.000713,-3.6e-05,-4.78,1
586,0.000593,0.000611,1.8e-05,3.08,1
587,0.000713,0.000728,1.5e-05,2.13,1
588,0.000349,0.000347,-2e-06,-0.65,1
589,0.000603,0.000565,-3.7e-05,-6.18,1
590,0.000609,0.00062,1e-05,1.7,1
591,0.001758,0.001804,4.7e-05,2.65,1
592,0.000337,0.000316,-2.1e-05,-6.11,1
593,0.000585,0.000587,1e-06,0.23,1
594,0.000574,0.000598,2.3e-05,4.07,1
595,0.000705,0.000748,4.4e-05,6.23,1
596,0.000445,0.000466,2.1e-05,4.63,1
597,0.000632,0.000635,3e-06,0.44,1
598,0.000881,0.000955,7.5e-05,8.5,1
599,0.001094,0.001112,1.8e-05,1.65,1
600,0.00081,0.000834,2.5e-05,3.05,2
601,0.000527,0.000557,3e-05,5.69,2
602,0.000416,0.000523,0.000107,25.74,2
603,0.000499,0.000624,0.000125,25.13,2
604,0.000743,0.000756,1.3e-05,1.77,2
605,0.000435,0.000486,5.1e-05,11.75,2
606,0.000571,0.000724,0.000153,26.82,2
607,0.000933,0.000853,-7.9e-05,-8.49,2
608,0.000623,0.000696,7.3e-05,11.65,2
609,0.000609,0.000676,6.7e-05,10.95,2
610,0.000561,0.000435,-0.000126,-22.44,2
611,0.000736,0.000684,-5.2e-05,-7.03,2
612,0.000611,0.000724,0.000113,18.41,2
613,0.000415,0.000492,7.6e-05,18.36,2
614,0.000617,0.000614,-3e-06,-0.5,2
615,0.000933,0.000906,-2.6e-05,-2.8,2
616,0.000406,0.000573,0.000168,41.34,2
617,0.00051,0.000499,-1.1e-05,-2.25,2
618,0.000587,0.000594,7e-06,1.24,2
619,0.000625,0.000687,6.1e-05,9.78,2
620,0.000614,0.000581,-3.3e-05,-5.36,2
621,0.000536,0.0006,6.4e-05,12.01,2
622,0.001052,0.000994,-5.7e-05,-5.45,2
623,0.000933,0.000933,0.0,0.03,2
624,0.000396,0.00043,3.5e-05,8.74,2
625,0.000745,0.000718,-2.7e-05,-3.64,2
626,0.00047,0.000506,3.7e-05,7.8,2
627,0.000625,0.000653,2.8e-05,4.41,2
628,0.000555,0.000645,9e-05,16.21,2
629,0.000496,0.000473,-2.3e-05,-4.55,2
630,0.000616,0.000698,8.2e-05,13.36,2
631,0.000595,0.000448,-0.000147,-24.7,2
632,0.000872,0.001065,0.000193,22.18,2
633,0.00051,0.000486,-2.4e-05,-4.69,2
634,0.000603,0.000702,9.9e-05,16.36,2
635,0.000513,0.000466,-4.8e-05,-9.29,2
636,0.000696,0.000608,-8.7e-05,-12.54,2
637,0.000435,0.000491,5.5e-05,12.73,2
638,0.000616,0.000684,6.8e-05,11.04,2
639,0.00242,0.002149,-0.000271,-11.2,2
640,0.000396,0.000444,4.8e-05,12.06,2
641,0.000625,0.00075,0.000125,19.97,2
642,0.000475,0.000538,6.3e-05,13.3,2
643,0.000842,0.000917,7.4e-05,8.84,2
644,0.000674,0.000833,0.000159,23.68,2
645,0.000815,0.000914,9.9e-05,12.09,2
646,0.000617,0.00063,1.3e-05,2.06,2
647,0.000619,0.000603,-1.5e-05,-2.46,2
648,0.000585,0.000541,-4.3e-05,-7.44,2
649,0.000724,0.000827,0.000103,14.2,2
650,0.000491,0.000524,3.3e-05,6.78,2
651,0.000513,0.00048,-3.3e-05,-6.52,2
652,0.000611,0.000686,7.4e-05,12.18,2
653,0.000436,0.000491,5.5e-05,12.52,2
654,0.001534,0.00153,-4e-06,-0.27,2
655,0.001023,0.0009,-0.000123,-11.99,2
656,0.000605,0.000562,-4.2e-05,-7.02,2
657,0.000745,0.000697,-4.8e-05,-6.4,2
658,0.000587,0.0006,1.3e-05,2.2,2
659,0.000499,0.000563,6.4e-05,12.82,2
660,0.000614,0.00059,-2.3e-05,-3.81,2
661,0.00044,0.000438,-2e-06,-0.43,2
662,0.000571,0.000642,7.1e-05,12.42,2
663,0.000839,0.000862,2.3e-05,2.74,2
664,0.000542,0.000518,-2.4e-05,-4.5,2
665,0.000699,0.000705,6e-06,0.86,2
666,0.000603,0.000653,5e-05,8.23,2
667,0.000842,0.000898,5.6e-05,6.6,2
668,0.00072,0.000753,3.2e-05,4.48,2
669,0.000466,0.000488,2.2e-05,4.73,2
670,0.000648,0.000713,6.5e-05,10.08,2
671,0.001149,0.001094,-5.6e-05,-4.84,2
672,0.000406,0.00048,7.5e-05,18.4,2
673,0.000709,0.000572,-0.000137,-19.27,2
674,0.00058,0.000628,4.8e-05,8.26,2
675,0.000551,0.000536,-1.5e-05,-2.72,2
676,0.000743,0.000756,1.3e-05,1.78,2
677,0.000815,0.000867,5.1e-05,6.31,2
678,0.000636,0.000639,3e-06,0.41,2
679,0.000905,0.000691,-0.000214,-23.63,2
680,0.000622,0.0006,-2.2e-05,-3.61,2
681,0.00083,0.000692,-0.000138,-16.6,2
682,0.000575,0.000498,-7.7e-05,-13.4,2
683,0.000736,0.000652,-8.4e-05,-11.41,2
684,0.000674,0.00074,6.6e-05,9.78,2
685,0.000466,0.000481,1.5e-05,3.25,2
686,0.000617,0.000645,2.7e-05,4.44,2
687,0.000786,0.000829,4.3e-05,5.44,2
688,0.000711,0.000673,-3.8e-05,-5.35,2
689,0.000724,0.00076,3.6e-05,4.93,2
690,0.000533,0.000516,-1.7e-05,-3.11,2
691,0.000581,0.000558,-2.2e-05,-3.87,2
692,0.000487,0.000467,-2e-05,-4.14,2
693,0.000496,0.000474,-2.1e-05,-4.29,2
694,0.000617,0.000649,3.2e-05,5.17,2
695,0.000619,0.000578,-4e-05,-6.5,2
696,0.000711,0.00068,-3e-05,-4.27,2
697,0.000499,0.000575,7.6e-05,15.31,2
698,0.000533,0.000523,-1e-05,-1.89,2
699,0.000499,0.00055,5.1e-05,10.32,2
700,0.000696,0.000615,-8.1e-05,-11.64,2
701,0.000444,0.000325,-0.000119,-26.78,2
702,0.000636,0.000645,9e-06,1.37,2
703,0.001149,0.001142,-7e-06,-0.6,2
704,0.000416,0.000488,7.3e-05,17.44,2
705,0.000999,0.001017,1.8e-05,1.83,2
706,0.000587,0.000608,2.1e-05,3.59,2
707,0.001271,0.001213,-5.7e-05,-4.51,2
708,0.000487,0.000462,-2.5e-05,-5.05,2
709,0.000563,0.000606,4.3e-05,7.66,2
710,0.0006,0.000605,5e-06,0.89,2
711,0.000905,0.000795,-0.00011,-12.11,2
712,0.000406,0.000404,-2e-06,-0.52,2
713,0.000527,0.000547,2e-05,3.8,2
714,0.000416,0.000449,3.3e-05,8.01,2
715,0.000454,0.000524,7e-05,15.36,2
716,0.000611,0.000649,3.8e-05,6.14,2
717,0.000797,0.000804,7e-06,0.92,2
718,0.000571,0.000628,5.8e-05,10.11,2
719,0.000595,0.000523,-7.3e-05,-12.2,2
720,0.000585,0.000538,-4.6e-05,-7.89,2
721,0.000999,0.001032,3.4e-05,3.38,2
722,0.000561,0.000427,-0.000134,-23.84,2
723,0.000551,0.000534,-1.7e-05,-3.12,2
724,0.000611,0.000639,2.7e-05,4.45,2
725,0.000553,0.000526,-2.7e-05,-4.8,2
726,0.000617,0.000651,3.4e-05,5.54,2
727,0.001023,0.000995,-2.7e-05,-2.67,2
728,0.00038,0.000386,6e-06,1.48,2
729,0.000999,0.001039,4e-05,4.03,2
730,0.000475,0.000502,2.8e-05,5.82,2
731,0.000619,0.000656,3.7e-05,6.01,2
732,0.000487,0.000465,-2.2e-05,-4.52,2
733,0.000563,0.000601,3.9e-05,6.88,2
734,0.000609,0.00062,1.2e-05,1.94,2
735,0.001023,0.001027,4e-06,0.39,2
736,0.000623,0.000644,2.1e-05,3.29,2
737,0.000527,0.000545,1.7e-05,3.3,2
738,0.000606,0.000606,-0.0,-0.04,2
739,0.000619,0.000639,2e-05,3.25,2
740,0.000674,0.000714,4e-05,6.0,2
741,0.000536,0.000564,2.8e-05,5.2,2
742,0.000516,0.000478,-3.9e-05,-7.49,2
743,0.001149,0.001162,1.3e-05,1.11,2
744,0.000623,0.000657,3.4e-05,5.44,2
745,0.000745,0.000696,-4.8e-05,-6.5,2
746,0.000416,0.000434,1.8e-05,4.38,2
747,0.000842,0.000805,-3.6e-05,-4.3,2
748,0.000743,0.000771,2.8e-05,3.8,2
749,0.000444,0.000336,-0.000108,-24.33,2
750,0.000571,0.00062,4.9e-05,8.59,2
751,0.001338,0.001376,3.8e-05,2.85,2
752,0.00081,0.000762,-4.8e-05,-5.89,2
753,0.000745,0.000708,-3.6e-05,-4.89,2
754,0.00047,0.000437,-3.3e-05,-7.02,2
755,0.000736,0.000665,-7.1e-05,-9.61,2
756,0.000614,0.000601,-1.3e-05,-2.1,2
757,0.000444,0.000354,-9.1e-05,-20.44,2
758,0.000516,0.000494,-2.3e-05,-4.39,2
759,0.000905,0.000857,-4.8e-05,-5.36,2
760,0.000416,0.000455,4e-05,9.51,2
761,0.000609,0.000626,1.7e-05,2.85,2
762,0.000575,0.000507,-6.8e-05,-11.76,2
763,0.000513,0.000481,-3.2e-05,-6.22,2
764,0.000584,0.000568,-1.6e-05,-2.71,2
765,0.000436,0.000458,2.2e-05,4.97,2
766,0.001534,0.001608,7.4e-05,4.82,2
767,0.000595,0.000574,-2.1e-05,-3.55,2
768,0.000622,0.00059,-3.2e-05,-5.07,2
769,0.000499,0.000566,6.8e-05,13.55,2
770,0.000533,0.00053,-3e-06,-0.53,2
771,0.000499,0.000528,2.9e-05,5.89,2
772,0.000676,0.000571,-0.000104,-15.44,2
773,0.000436,0.000456,2e-05,4.52,2
774,0.000571,0.000618,4.7e-05,8.28,2
775,0.00242,0.002458,3.8e-05,1.56,2
776,0.000416,0.000444,2.9e-05,6.94,2
777,0.00051,0.000486,-2.4e-05,-4.65,2
778,0.000416,0.000434,1.8e-05,4.27,2
779,0.000499,0.000525,2.6e-05,5.27,2
780,0.000743,0.000769,2.6e-05,3.56,2
781,0.000553,0.000531,-2.2e-05,-3.91,2
782,0.000571,0.000611,4e-05,7.03,2
783,0.000619,0.000611,-7e-06,-1.18,2
784,0.000605,0.000555,-4.9e-05,-8.18,2
785,0.000609,0.000624,1.5e-05,2.52,2
786,0.000561,0.00045,-0.000111,-19.77,2
787,0.000623,0.000623,-0.0,-0.03,2
788,0.000696,0.000635,-6.1e-05,-8.75,2
789,0.000415,0.000443,2.8e-05,6.65,2
790,0.000648,0.000667,1.9e-05,2.89,2
791,0.001149,0.00118,3.1e-05,2.7,2
792,0.00081,0.000789,-2.1e-05,-2.59,2
793,0.000745,0.000712,-3.3e-05,-4.42,2
794,0.000587,0.0006,1.3e-05,2.25,2
795,0.000499,0.00052,2.2e-05,4.34,2
796,0.000614,0.000602,-1.2e-05,-1.94,2
797,0.000563,0.000603,4e-05,7.13,2
798,0.000616,0.000675,5.9e-05,9.65,2
799,0.000595,0.000599,3e-06,0.53,2
800,0.000416,0.000435,1.9e-05,4.65,2
801,0.000745,0.000715,-2.9e-05,-3.95,2
802,0.000606,0.000614,8e-06,1.38,2
803,0.000513,0.000492,-2.1e-05,-4.06,2
804,0.000614,0.000605,-9e-06,-1.41,2
805,0.000797,0.000758,-3.9e-05,-4.93,2
806,0.000547,0.000508,-3.9e-05,-7.1,2
807,0.001338,0.001349,1.1e-05,0.85,2
808,0.00081,0.000802,-7e-06,-0.91,2
809,0.00083,0.000745,-8.5e-05,-10.21,2
810,0.00047,0.00044,-2.9e-05,-6.25,2
811,0.000623,0.000621,-1e-06,-0.21,2
812,0.000676,0.000593,-8.3e-05,-12.23,2
813,0.00044,0.000423,-1.7e-05,-3.92,2
814,0.000516,0.000514,-3e-06,-0.54,2
815,0.001149,0.001186,3.7e-05,3.21,2
816,0.00038,0.000403,2.3e-05,5.94,2
817,0.000724,0.000755,3.1e-05,4.27,2
818,0.000606,0.000615,9e-06,1.45,2
819,0.000513,0.0005,-1.3e-05,-2.6,2
820,0.00062,0.000702,8.2e-05,13.21,2
821,0.000444,0.000375,-7e-05,-15.7,2
822,0.000648,0.000664,1.6e-05,2.41,2
823,0.000905,0.000896,-1e-05,-1.06,2
824,0.000396,0.000452,5.6e-05,14.13,2
825,0.000625,0.000678,5.2e-05,8.39,2
826,0.000475,0.000473,-2e-06,-0.33,2
827,0.000623,0.00062,-3e-06,-0.43,2
828,0.000446,0.000435,-1.1e-05,-2.45,2
829,0.000536,0.00055,1.4e-05,2.63,2
830,0.000547,0.000515,-3.3e-05,-5.94,2
831,0.00242,0.00254,0.000119,4.93,2
832,0.000711,0.000678,-3.3e-05,-4.61,2
833,0.000699,0.000712,1.4e-05,1.98,2
834,0.000603,0.000641,3.8e-05,6.23,2
835,0.000625,0.000597,-2.9e-05,-4.56,2
836,0.000696,0.000642,-5.4e-05,-7.74,2
837,0.000436,0.000449,1.3e-05,2.98,2
838,0.001534,0.001649,0.000115,7.51,2
839,0.000905,0.000912,7e-06,0.79,2
840,0.000622,0.000591,-3.1e-05,-4.97,2
841,0.000999,0.00104,4.1e-05,4.1,2
842,0.000475,0.000465,-9e-06,-1.93,2
843,0.000454,0.000469,1.4e-05,3.17,2
844,0.000446,0.000443,-3e-06,-0.73,2
845,0.000436,0.000447,1.1e-05,2.5,2
846,0.000516,0.000522,6e-06,1.16,2
847,0.00082,0.000772,-4.8e-05,-5.85,2
848,0.000396,0.000453,5.8e-05,14.54,2
849,0.00083,0.000776,-5.4e-05,-6.51,2
850,0.000575,0.000535,-4e-05,-6.97,2
851,0.000842,0.000812,-3e-05,-3.53,2
852,0.000611,0.000625,1.3e-05,2.16,2
853,0.000444,0.000381,-6.4e-05,-14.36,2
854,0.000571,0.000604,3.4e-05,5.89,2
855,0.000786,0.000792,6e-06,0.77,2
856,0.000623,0.000652,2.8e-05,4.55,2
857,0.000724,0.000748,2.4e-05,3.28,2
858,0.000606,0.000613,7e-06,1.22,2
859,0.000581,0.000571,-1e-05,-1.75,2
860,0.000676,0.000607,-6.8e-05,-10.1,2
861,0.000563,0.000604,4.1e-05,7.29,2
862,0.0006,0.00062,2e-05,3.32,2
863,0.001023,0.001034,1.2e-05,1.15,2
864,0.00038,0.000401,2.1e-05,5.55,2
865,0.000699,0.000711,1.2e-05,1.75,2
866,0.000606,0.000614,8e-06,1.35,2
867,0.000623,0.000616,-7e-06,-1.06,2
868,0.000487,0.00047,-1.7e-05,-3.51,2
869,0.000466,0.000469,3e-06,0.68,2
870,0.000609,0.000607,-2e-06,-0.26,2
871,0.000595,0.000612,1.7e-05,2.84,2
872,0.000605,0.000565,-4e-05,-6.57,2
873,0.000999,0.001037,3.9e-05,3.89,2
874,0.000587,0.000593,5e-06,0.91,2
875,0.000454,0.000456,2e-06,0.48,2
876,0.000743,0.000764,2.2e-05,2.92,2
877,0.000553,0.000541,-1.2e-05,-2.13,2
878,0.001534,0.001662,0.000128,8.32,2
879,0.000905,0.00093,2.5e-05,2.79,2
880,0.000711,0.000677,-3.3e-05,-4.69,2
881,0.000724,0.000746,2.2e-05,3.0,2
882,0.000603,0.000637,3.4e-05,5.61,2
883,0.001271,0.001262,-9e-06,-0.72,2
884,0.000446,0.000449,3e-06,0.61,2
885,0.00044,0.000424,-1.6e-05,-3.71,2
886,0.0006,0.000627,2.7e-05,4.51,2
887,0.000786,0.000784,-2e-06,-0.2,2
888,0.000542,0.000568,2.6e-05,4.81,2
889,0.000499,0.000558,6e-05,11.98,2
890,0.000416,0.000433,1.7e-05,4.17,2
891,0.000581,0.000574,-7e-06,-1.16,2
892,0.000614,0.000605,-9e-06,-1.43,2
893,0.000553,0.000549,-4e-06,-0.67,2
894,0.000516,0.000531,1.5e-05,2.82,2
895,0.001023,0.001042,2e-05,1.92,2
896,0.000406,0.000362,-4.4e-05,-10.8,2
897,0.00083,0.000788,-4.2e-05,-5.06,2
898,0.000587,0.000589,2e-06,0.26,2
899,0.000625,0.000594,-3.1e-05,-4.95,2
900,0.00062,0.00069,7e-05,11.36,2
901,0.000536,0.000548,1.2e-05,2.28,2
902,0.000636,0.000656,2e-05,3.1,2
903,0.000839,0.000833,-6e-06,-0.69,2
904,0.000416,0.00043,1.4e-05,3.38,2
905,0.000999,0.001036,3.7e-05,3.75,2
906,0.000533,0.000542,1e-05,1.81,2
907,0.000625,0.000595,-3e-05,-4.79,2
908,0.000611,0.000617,6e-06,0.93,2
909,0.000536,0.000547,1.1e-05,2.07,2
910,0.000636,0.000653,1.7e-05,2.68,2
911,0.00082,0.000781,-3.9e-05,-4.71,2
912,0.00081,0.00081,-0.0,-0.01,2
913,0.00051,0.000502,-8e-06,-1.62,2
914,0.000734,0.000712,-2.2e-05,-2.97,2
915,0.000842,0.000881,3.9e-05,4.59,2
916,0.000674,0.000683,9e-06,1.36,2
917,0.000496,0.000477,-1.8e-05,-3.66,2
918,0.001052,0.001015,-3.6e-05,-3.47,2
919,0.000839,0.000838,-0.0,-0.05,2
920,0.00038,0.000398,1.7e-05,4.56,2
921,0.000973,0.000981,9e-06,0.89,2
922,0.000533,0.000542,9e-06,1.75,2
923,0.000513,0.0005,-1.3e-05,-2.55,2
924,0.00072,0.000723,3e-06,0.43,2
925,0.000797,0.000753,-4.4e-05,-5.48,2
926,0.000609,0.000606,-2e-06,-0.38,2
927,0.000619,0.000619,0.0,0.04,2
928,0.000406,0.00036,-4.6e-05,-11.31,2
929,0.000527,0.000534,7e-06,1.37,2
930,0.000491,0.000507,1.6e-05,3.3,2
931,0.000499,0.000513,1.5e-05,2.93,2
932,0.000674,0.000683,9e-06,1.39,2
933,0.000536,0.000545,9e-06,1.75,2
934,0.000616,0.000664,4.8e-05,7.86,2
935,0.000786,0.000784,-2e-06,-0.26,2
936,0.000605,0.000575,-3e-05,-4.92,2
937,0.00051,0.000509,-1e-06,-0.19,2
938,0.000734,0.000726,-7e-06,-1.02,2
939,0.000619,0.000629,1e-05,1.59,2
940,0.000614,0.000611,-3e-06,-0.47,2
941,0.000415,0.000436,2.1e-05,5.03,2
942,0.000852,0.000825,-2.7e-05,-3.19,2
943,0.000771,0.000747,-2.4e-05,-3.1,2
944,0.000396,0.000468,7.2e-05,18.14,2
945,0.000709,0.000602,-0.000106,-14.99,2
946,0.000575,0.000555,-2e-05,-3.41,2
947,0.000513,0.000502,-1.1e-05,-2.17,2
948,0.000446,0.000442,-4e-06,-0.98,2
949,0.000435,0.000444,9e-06,2.13,2
950,0.000852,0.000841,-1.1e-05,-1.25,2
951,0.001338,0.001351,1.3e-05,0.96,2
952,0.000622,0.000591,-3.1e-05,-4.97,2
953,0.000745,0.000715,-3e-05,-4.05,2
954,0.000475,0.00046,-1.5e-05,-3.15,2
955,0.000513,0.000506,-7e-06,-1.33,2
956,0.000555,0.000543,-1.2e-05,-2.19,2
957,0.000496,0.00048,-1.6e-05,-3.21,2
958,0.000571,0.000599,2.8e-05,4.95,2
959,0.000771,0.000753,-1.8e-05,-2.35,2
960,0.000585,0.000547,-3.7e-05,-6.4,2
961,0.00051,0.000512,1e-06,0.28,2
962,0.000475,0.000458,-1.6e-05,-3.4,2
963,0.000842,0.000876,3.4e-05,4.04,2
964,0.000676,0.000634,-4.2e-05,-6.15,2
965,0.000466,0.000468,3e-06,0.63,2
966,0.001052,0.001022,-2.9e-05,-2.79,2
967,0.000933,0.000957,2.4e-05,2.59,2
968,0.000872,0.001,0.000128,14.7,2
969,0.00083,0.000799,-3e-05,-3.65,2
970,0.000416,0.000426,1e-05,2.41,2
971,0.000454,0.000448,-6e-06,-1.38,2
972,0.00072,0.000724,4e-06,0.56,2
973,0.000444,0.000392,-5.3e-05,-11.81,2
974,0.000516,0.000538,2.2e-05,4.22,2
975,0.000786,0.000775,-1.1e-05,-1.36,2
976,0.00038,0.000401,2.1e-05,5.4,2
977,0.000699,0.000715,1.6e-05,2.28,2
978,0.000475,0.000457,-1.8e-05,-3.78,2
979,0.000581,0.000572,-9e-06,-1.48,2
980,0.000674,0.000682,8e-06,1.22,2
981,0.000496,0.000481,-1.4e-05,-2.89,2
982,0.000547,0.000522,-2.6e-05,-4.68,2
983,0.000839,0.000843,5e-06,0.56,2
984,0.000542,0.000571,2.9e-05,5.33,2
985,0.00051,0.000512,2e-06,0.34,2
986,0.000575,0.000572,-3e-06,-0.55,2
987,0.001271,0.001277,6e-06,0.49,2
988,0.000584,0.000577,-6e-06,-1.04,2
989,0.000553,0.000558,6e-06,1.04,2
990,0.000648,0.000629,-2e-05,-3.01,2
991,0.000595,0.000621,2.5e-05,4.23,2
992,0.000711,0.000683,-2.7e-05,-3.83,2
993,0.000699,0.000713,1.5e-05,2.09,2
994,0.000587,0.000582,-6e-06,-0.95,2
995,0.000499,0.00051,1.1e-05,2.26,2
996,0.000696,0.000654,-4.1e-05,-5.93,2
997,0.000444,0.000402,-4.2e-05,-9.52,2
998,0.000648,0.000628,-2e-05,-3.15,2
999,0.000771,0.000754,-1.7e-05,-2.2,2
1000,0.000542,0.00057,2.8e-05,5.13,2
1001,0.000973,0.000972,-1e-06,-0.09,2
1002,0.000491,0.000508,1.7e-05,3.55,2
1003,0.000551,0.000517,-3.4e-05,-6.19,2
1004,0.000611,0.000615,3e-06,0.52,2
1005,0.000415,0.000438,2.2e-05,5.31,2
1006,0.000852,0.000849,-3e-06,-0.36,2
1007,0.000905,0.000971,6.5e-05,7.23,2
1008,0.00038,0.000406,2.5e-05,6.65,2
1009,0.000745,0.000715,-3e-05,-4.02,2
1010,0.00047,0.000435,-3.5e-05,-7.41,2
1011,0.000619,0.000624,6e-06,0.94,2
1012,0.000446,0.000436,-1e-05,-2.25,2
1013,0.000436,0.000452,1.6e-05,3.59,2
1014,0.0006,0.000619,2e-05,3.29,2
1015,0.001149,0.00121,6.1e-05,5.26,2
1016,0.000396,0.000472,7.6e-05,19.28,2
1017,0.000527,0.00053,3e-06,0.53,2
1018,0.00058,0.000614,3.4e-05,5.9,2
1019,0.000499,0.000507,8e-06,1.62,2
1020,0.000676,0.000644,-3.2e-05,-4.72,2
1021,0.00044,0.00042,-2e-05,-4.56,2
1022,0.000648,0.000627,-2.2e-05,-3.33,2
1023,0.000905,0.000974,6.9e-05,7.6,2
1024,0.000711,0.000684,-2.6e-05,-3.7,2
1025,0.000625,0.000663,3.8e-05,6.04,2
1026,0.000734,0.000726,-7e-06,-1.0,2
1027,0.000619,0.00062,2e-06,0.27,2
1028,0.000674,0.000681,8e-06,1.14,2
1029,0.000435,0.000435,-0.0,-0.04,2
1030,0.000617,0.000633,1.6e-05,2.55,2
1031,0.000595,0.000628,3.3e-05,5.52,2
1032,0.000585,0.000553,-3.2e-05,-5.44,2
1033,0.00051,0.000516,6e-06,1.16,2
1034,0.00058,0.000606,2.6e-05,4.45,2
1035,0.000842,0.000814,-2.7e-05,-3.24,2
1036,0.000614,0.000617,4e-06,0.62,2
1037,0.000466,0.000471,6e-06,1.23,2
1038,0.000571,0.000597,2.7e-05,4.66,2
1039,0.000933,0.000971,3.9e-05,4.14,2
1040,0.00081,0.00082,1.1e-05,1.3,2
1041,0.000709,0.000628,-8e-05,-11.34,2
1042,0.000533,0.000555,2.2e-05,4.19,2
1043,0.000513,0.000508,-5e-06,-1.0,2
1044,0.000446,0.000431,-1.5e-05,-3.38,2
1045,0.000563,0.000601,3.8e-05,6.81,2
1046,0.001534,0.001675,0.000141,9.22,2
1047,0.000933,0.000976,4.4e-05,4.7,2
1048,0.000396,0.000469,7.4e-05,18.58,2
1049,0.00083,0.000807,-2.3e-05,-2.78,2
1050,0.000533,0.000555,2.3e-05,4.28,2
1051,0.000499,0.000504,6e-06,1.11,2
1052,0.00062,0.000673,5.4e-05,8.67,2
1053,0.00044,0.000419,-2.2e-05,-4.95,2
1054,0.000636,0.000651,1.5e-05,2.34,2
1055,0.000595,0.000635,4e-05,6.63,2
1056,0.000622,0.000589,-3.3e-05,-5.36,2
1057,0.00051,0.000517,7e-06,1.4,2
1058,0.000475,0.000452,-2.2e-05,-4.73,2
1059,0.000454,0.000449,-5e-06,-1.15,2
1060,0.000584,0.000584,1e-06,0.1,2
1061,0.000436,0.000448,1.2e-05,2.8,2
1062,0.0006,0.000624,2.4e-05,3.99,2
1063,0.000619,0.000622,3e-06,0.54,2
1064,0.000416,0.000419,3e-06,0.81,2
1065,0.000609,0.000623,1.4e-05,2.36,2
1066,0.000533,0.000556,2.3e-05,4.38,2
1067,0.000842,0.000875,3.3e-05,3.91,2
1068,0.000743,0.000752,9e-06,1.24,2
1069,0.00044,0.000419,-2.1e-05,-4.79,2
1070,0.000648,0.000624,-2.4e-05,-3.7,2
1071,0.000771,0.000755,-1.6e-05,-2.02,2
1072,0.000406,0.000359,-4.7e-05,-11.54,2
1073,0.000699,0.000711,1.3e-05,1.83,2
1074,0.000587,0.000578,-9e-06,-1.56,2
1075,0.000736,0.000673,-6.3e-05,-8.5,2
1076,0.000487,0.000482,-4e-06,-0.92,2
1077,0.000436,0.000446,1e-05,2.36,2
1078,0.000547,0.000533,-1.5e-05,-2.69,2
1079,0.000786,0.00077,-1.6e-05,-1.99,2
1080,0.000396,0.000468,7.2e-05,18.27,2
1081,0.000609,0.000625,1.6e-05,2.67,2
1082,0.000575,0.000584,1e-05,1.65,2
1083,0.000736,0.000685,-5.1e-05,-6.93,2
1084,0.000614,0.000618,5e-06,0.78,2
1085,0.000435,0.000432,-3e-06,-0.68,2
1086,0.000571,0.000594,2.4e-05,4.16,2
1087,0.000786,0.000768,-1.9e-05,-2.35,2
1088,0.000585,0.000563,-2.2e-05,-3.71,2
1089,0.000709,0.000644,-6.4e-05,-9.08,2
1090,0.000491,0.000513,2.2e-05,4.43,2
1091,0.001271,0.001294,2.4e-05,1.86,2
1092,0.000611,0.000613,2e-06,0.28,2
1093,0.000563,0.000601,3.8e-05,6.71,2
1094,0.000617,0.000636,1.9e-05,3.09,2
1095,0.000905,0.00098,7.5e-05,8.26,2
1096,0.000416,0.000417,1e-06,0.27,2
1097,0.000745,0.000716,-2.9e-05,-3.94,2
1098,0.000587,0.000577,-1e-05,-1.66,2
1099,0.000581,0.000576,-5e-06,-0.8,2
1100,0.000743,0.000753,1e-05,1.39,2
1101,0.000815,0.000843,2.8e-05,3.41,2
1102,0.0006,0.000625,2.5e-05,4.23,2
1103,0.001338,0.001353,1.5e-05,1.12,2
1104,0.000872,0.000962,9e-05,10.32,2
1105,0.000609,0.000622,1.3e-05,2.11,2
1106,0.000575,0.000592,1.8e-05,3.08,2
1107,0.000619,0.000615,-3e-06,-0.54,2
1108,0.000584,0.000587,4e-06,0.65,2
1109,0.000415,0.000436,2e-05,4.84,2
1110,0.000609,0.000597,-1.1e-05,-1.89,2
1111,0.000905,0.000982,7.7e-05,8.53,2
1112,0.000585,0.000568,-1.6e-05,-2.77,2
1113,0.000699,0.000712,1.3e-05,1.86,2
1114,0.000603,0.000642,3.8e-05,6.33,2
1115,0.000623,0.000617,-6e-06,-0.96,2
1116,0.000611,0.000611,-1e-06,-0.11,2
1117,0.000797,0.000753,-4.4e-05,-5.49,2
1118,0.000571,0.000592,2.2e-05,3.79,2
1119,0.000771,0.000758,-1.3e-05,-1.68,2
1120,0.000605,0.000576,-2.9e-05,-4.73,2
1121,0.000745,0.000718,-2.7e-05,-3.58,2
1122,0.000491,0.000512,2.1e-05,4.31,2
1123,0.000619,0.000612,-7e-06,-1.1,2
1124,0.000614,0.000619,5e-06,0.88,2
1125,0.000415,0.000434,1.8e-05,4.34,2
1126,0.000852,0.000861,1e-05,1.12,2
1127,0.000839,0.000854,1.5e-05,1.82,2
1128,0.000585,0.000573,-1.1e-05,-1.96,2
1129,0.00083,0.00081,-2e-05,-2.36,2
1130,0.000603,0.000639,3.5e-05,5.87,2
1131,0.000581,0.00058,-1e-06,-0.12,2
1132,0.000584,0.000588,4e-06,0.73,2
1133,0.000815,0.000841,2.5e-05,3.13,2
1134,0.0006,0.000625,2.6e-05,4.29,2
1135,0.000619,0.000623,4e-06,0.62,2
1136,0.000542,0.000574,3.2e-05,5.91,2
1137,0.000724,0.000765,4e-05,5.56,2
1138,0.000734,0.000728,-5e-06,-0.72,2
1139,0.000842,0.000824,-1.7e-05,-2.04,2
1140,0.000446,0.000428,-1.8e-05,-4.0,2
1141,0.000496,0.000488,-8e-06,-1.6,2
1142,0.000571,0.000592,2.2e-05,3.81,2
1143,0.000595,0.000639,4.3e-05,7.29,2
1144,0.000396,0.000468,7.2e-05,18.27,2
1145,0.000724,0.00076,3.5e-05,4.85,2
1146,0.000533,0.000559,2.7e-05,5.02,2
1147,0.000842,0.000832,-1e-05,-1.15,2
1148,0.000446,0.00043,-1.6e-05,-3.63,2
1149,0.000436,0.000448,1.2e-05,2.78,2
1150,0.000636,0.000654,1.8e-05,2.78,2
1151,0.000595,0.000642,4.7e-05,7.88,2
1152,0.000396,0.000466,7e-05,17.67,2
1153,0.00051,0.000519,9e-06,1.75,2
1154,0.000533,0.000559,2.6e-05,4.95,2
1155,0.000499,0.000501,2e-06,0.44,2
1156,0.000446,0.000431,-1.5e-05,-3.37,2
1157,0.000466,0.000472,6e-06,1.34,2
1158,0.000609,0.000594,-1.5e-05,-2.44,2
1159,0.000933,0.000986,5.3e-05,5.71,2
1160,0.00038,0.000414,3.3e-05,8.75,2
1161,0.000499,0.000551,5.3e-05,10.58,2
1162,0.000587,0.000576,-1.1e-05,-1.88,2
1163,0.000842,0.000838,-4e-06,-0.46,2
1164,0.000487,0.000486,-1e-06,-0.2,2
1165,0.000436,0.000447,1.1e-05,2.53,2
1166,0.001534,0.001675,0.000141,9.21,2
1167,0.000905,0.000986,8.1e-05,8.96,2
1168,0.000406,0.000358,-4.8e-05,-11.82,2
1169,0.000527,0.000525,-2e-06,-0.44,2
1170,0.00047,0.000449,-2.1e-05,-4.47,2
1171,0.000513,0.000509,-4e-06,-0.76,2
1172,0.000743,0.00075,7e-06,0.97,2
1173,0.000553,0.00056,8e-06,1.38,2
1174,0.000547,0.000537,-1e-05,-1.85,2
1175,0.000933,0.000987,5.4e-05,5.83,2
1176,0.000396,0.000464,6.9e-05,17.32,2
1177,0.00051,0.00052,1e-05,1.93,2
1178,0.000491,0.000512,2.1e-05,4.21,2
1179,0.000499,0.000503,4e-06,0.78,2
1180,0.000446,0.000432,-1.4e-05,-3.11,2
1181,0.00044,0.000416,-2.4e-05,-5.43,2
1182,0.000616,0.000636,2e-05,3.31,2
1183,0.001023,0.001053,3e-05,2.97,2
1184,0.000396,0.000463,6.7e-05,16.98,2
1185,0.000709,0.00065,-5.8e-05,-8.22,2
1186,0.000606,0.000613,7e-06,1.18,2
1187,0.000619,0.000614,-5e-06,-0.8,2
1188,0.00062,0.000661,4.1e-05,6.6,2
1189,0.000496,0.00049,-6e-06,-1.17,2
1190,0.000571,0.00059,1.9e-05,3.38,2
1191,0.000786,0.000769,-1.7e-05,-2.21,2
1192,0.000623,0.000661,3.8e-05,6.05,2
1193,0.000973,0.000975,2e-06,0.21,2
1194,0.000475,0.000451,-2.3e-05,-4.91,2
1195,0.000736,0.000697,-3.9e-05,-5.3,2
1196,0.00072,0.000724,4e-06,0.49,2
1197,0.000466,0.000472,7e-06,1.41,2
1198,0.000547,0.000543,-4e-06,-0.73,2
1199,0.000786,0.000767,-1.9e-05,-2.43,2
1200,0.000568,0.000608,4e-05,7.02,4
1201,0.000817,0.000876,6e-05,7.32,4
1202,0.00066,0.000867,0.000206,31.25,4
1203,0.00108,0.000943,-0.000138,-12.74,4
1204,0.000611,0.000544,-6.7e-05,-11.04,4
1205,0.000591,0.0007,0.000109,18.37,4
1206,0.000426,0.000557,0.000131,30.85,4
1207,0.000531,0.000437,-9.4e-05,-17.74,4
1208,0.000751,0.000757,6e-06,0.85,4
1209,0.000817,0.000855,3.8e-05,4.69,4
1210,0.000397,0.000436,3.9e-05,9.71,4
1211,0.000598,0.000452,-0.000146,-24.48,4
1212,0.000576,0.000681,0.000105,18.16,4
1213,0.001104,0.000967,-0.000136,-12.36,4
1214,0.000691,0.000687,-3e-06,-0.5,4
1215,0.001659,0.001428,-0.000231,-13.92,4
1216,0.000568,0.000589,2.1e-05,3.72,4
1217,0.000823,0.000708,-0.000115,-14.0,4
1218,0.000666,0.000619,-4.7e-05,-7.05,4
1219,0.000598,0.000503,-9.5e-05,-15.91,4
1220,0.000499,0.000314,-0.000184,-37.0,4
1221,0.00047,0.000541,7.1e-05,15.18,4
1222,0.000691,0.000683,-7e-06,-1.08,4
1223,0.000531,0.00049,-4.2e-05,-7.85,4
1224,0.000438,0.000482,4.4e-05,10.11,4
1225,0.000443,0.000404,-3.9e-05,-8.84,4
1226,0.000796,0.000691,-0.000105,-13.24,4
1227,0.000826,0.000819,-8e-06,-0.94,4
1228,0.000685,0.000706,2.1e-05,3.11,4
1229,0.000497,0.000327,-0.00017,-34.27,4
1230,0.000426,0.000446,2e-05,4.72,4
1231,0.000716,0.000642,-7.3e-05,-10.25,4
1232,0.000411,0.00038,-3.1e-05,-7.59,4
1233,0.000618,0.00057,-4.8e-05,-7.73,4
1234,0.000697,0.000777,8e-05,11.43,4
1235,0.000641,0.000742,0.000101,15.81,4
1236,0.000685,0.000732,4.7e-05,6.82,4
1237,0.000647,0.000605,-4.2e-05,-6.53,4
1238,0.000659,0.000736,7.7e-05,11.73,4
1239,0.000749,0.00072,-2.9e-05,-3.86,4
1240,0.000869,0.000768,-0.000101,-11.63,4
1241,0.000428,0.000508,8e-05,18.8,4
1242,0.000464,0.000495,3.1e-05,6.67,4
1243,0.000703,0.000604,-9.9e-05,-14.03,4
1244,0.000499,0.00037,-0.000129,-25.78,4
1245,0.000441,0.000583,0.000142,32.18,4
1246,0.000739,0.000682,-5.7e-05,-7.68,4
1247,0.000541,0.000447,-9.4e-05,-17.42,4
1248,0.000935,0.000896,-4e-05,-4.22,4
1249,0.000466,0.0005,3.3e-05,7.16,4
1250,0.000526,0.000622,9.6e-05,18.25,4
1251,0.000807,0.000711,-9.6e-05,-11.9,4
1252,0.000611,0.000563,-4.8e-05,-7.87,4
1253,0.000604,0.000616,1.1e-05,1.84,4
1254,0.000558,0.000572,1.4e-05,2.47,4
1255,0.000531,0.000504,-2.8e-05,-5.2,4
1256,0.000444,0.000444,0.0,0.05,4
1257,0.000618,0.000583,-3.5e-05,-5.63,4
1258,0.000478,0.000386,-9.2e-05,-19.2,4
1259,0.000628,0.000725,9.7e-05,15.43,4
1260,0.000651,0.000815,0.000164,25.26,4
1261,0.000497,0.000397,-0.0001,-20.11,4
1262,0.000828,0.000871,4.2e-05,5.13,4
1263,0.000398,0.00055,0.000151,37.94,4
1264,0.001307,0.001371,6.3e-05,4.86,4
1265,0.000428,0.000432,4e-06,0.95,4
1266,0.000464,0.00045,-1.4e-05,-3.05,4
1267,0.000641,0.000695,5.4e-05,8.42,4
1268,0.000611,0.000573,-3.8e-05,-6.19,4
1269,0.000441,0.000533,9.3e-05,21.03,4
1270,0.000829,0.000845,1.6e-05,1.93,4
1271,0.000398,0.000487,8.9e-05,22.34,4
1272,0.000438,0.000469,3.1e-05,7.05,4
1273,0.000466,0.000439,-2.7e-05,-5.81,4
1274,0.000666,0.000597,-6.9e-05,-10.34,4
1275,0.000522,0.000542,2e-05,3.93,4
1276,0.000758,0.000721,-3.7e-05,-4.94,4
1277,0.000853,0.000783,-6.9e-05,-8.13,4
1278,0.000676,0.000648,-2.8e-05,-4.18,4
1279,0.000531,0.000533,1e-06,0.27,4
1280,0.000956,0.000907,-4.9e-05,-5.11,4
1281,0.000817,0.000807,-9e-06,-1.14,4
1282,0.000413,0.000435,2.2e-05,5.31,4
1283,0.000825,0.000888,6.3e-05,7.59,4
1284,0.000758,0.000707,-5.2e-05,-6.79,4
1285,0.001104,0.001039,-6.4e-05,-5.83,4
1286,0.000558,0.000579,2.1e-05,3.73,4
1287,0.000687,0.000469,-0.000218,-31.74,4
1288,0.000444,0.00042,-2.4e-05,-5.43,4
1289,0.000443,0.000391,-5.2e-05,-11.66,4
1290,0.000413,0.000428,1.5e-05,3.6,4
1291,0.001037,0.001065,2.8e-05,2.68,4
1292,0.000518,0.000491,-2.6e-05,-5.1,4
1293,0.000441,0.000511,7e-05,15.96,4
1294,0.000691,0.00071,2e-05,2.84,4
1295,0.00053,0.00041,-0.00012,-22.65,4
1296,0.000767,0.000835,6.8e-05,8.91,4
1297,0.000885,0.000826,-5.9e-05,-6.63,4
1298,0.000464,0.00045,-1.4e-05,-3.12,4
1299,0.000734,0.000778,4.4e-05,5.98,4
1300,0.000758,0.000702,-5.6e-05,-7.34,4
1301,0.000441,0.000498,5.7e-05,13.03,4
1302,0.000676,0.000658,-1.9e-05,-2.76,4
1303,0.00053,0.000457,-7.3e-05,-13.75,4
1304,0.000411,0.000411,-1e-06,-0.14,4
1305,0.000466,0.000417,-4.9e-05,-10.55,4
1306,0.000796,0.000752,-4.4e-05,-5.53,4
1307,0.000825,0.000894,6.9e-05,8.39,4
1308,0.000499,0.000409,-9e-05,-18.01,4
1309,0.000647,0.000605,-4.2e-05,-6.47,4
1310,0.00036,0.000571,0.000211,58.64,4
1311,0.000716,0.000725,9e-06,1.25,4
1312,0.000751,0.000741,-1e-05,-1.33,4
1313,0.000885,0.000863,-2.2e-05,-2.53,4
1314,0.000596,0.000659,6.4e-05,10.68,4
1315,0.00108,0.001047,-3.3e-05,-3.1,4
1316,0.000499,0.000425,-7.4e-05,-14.76,4
1317,0.001104,0.00105,-5.3e-05,-4.83,4
1318,0.000582,0.000621,3.9e-05,6.74,4
1319,0.000541,0.000449,-9.3e-05,-17.13,4
1320,0.000438,0.000471,3.3e-05,7.57,4
1321,0.000817,0.000791,-2.5e-05,-3.09,4
1322,0.000413,0.000426,1.3e-05,3.13,4
1323,0.000522,0.00054,1.8e-05,3.48,4
1324,0.000499,0.000436,-6.3e-05,-12.65,4
1325,0.000647,0.000614,-3.4e-05,-5.19,4
1326,0.000828,0.000746,-8.2e-05,-9.88,4
1327,0.000503,0.000468,-3.5e-05,-6.95,4
1328,0.000935,0.000915,-2.1e-05,-2.2,4
1329,0.000817,0.000786,-3.1e-05,-3.78,4
1330,0.000464,0.000453,-1.2e-05,-2.49,4
1331,0.000522,0.000538,1.6e-05,3.15,4
1332,0.00081,0.000776,-3.4e-05,-4.25,4
1333,0.000647,0.00062,-2.7e-05,-4.23,4
1334,0.000558,0.000631,7.3e-05,13.16,4
1335,0.000398,0.000441,4.2e-05,10.63,4
1336,0.000956,0.000919,-3.7e-05,-3.86,4
1337,0.000817,0.000782,-3.4e-05,-4.2,4
1338,0.000783,0.000738,-4.6e-05,-5.84,4
1339,0.000791,0.000679,-0.000111,-14.09,4
1340,0.000691,0.000644,-4.7e-05,-6.78,4
1341,0.000851,0.00083,-2e-05,-2.39,4
1342,0.000739,0.000756,1.7e-05,2.34,4
1343,0.000713,0.000719,6e-06,0.86,4
1344,0.000411,0.000414,2e-06,0.56,4
1345,0.000472,0.000541,6.9e-05,14.67,4
1346,0.000464,0.000453,-1.1e-05,-2.44,4
1347,0.000826,0.000776,-5e-05,-6.1,4
1348,0.000499,0.000448,-5.1e-05,-10.18,4
1349,0.000441,0.000492,5.1e-05,11.63,4
1350,0.000546,0.000586,4e-05,7.35,4
1351,0.000716,0.00075,3.4e-05,4.82,4
1352,0.000438,0.000471,3.3e-05,7.63,4
1353,0.000466,0.000445,-2.1e-05,-4.53,4
1354,0.000478,0.0004,-7.8e-05,-16.39,4
1355,0.000826,0.000786,-4e-05,-4.83,4
1356,0.000518,0.000498,-2e-05,-3.87,4
1357,0.000647,0.000616,-3.1e-05,-4.85,4
1358,0.000659,0.000733,7.4e-05,11.21,4
1359,0.000846,0.00073,-0.000116,-13.75,4
1360,0.000767,0.00081,4.3e-05,5.55,4
1361,0.000885,0.000875,-1e-05,-1.1,4
1362,0.000413,0.000422,9e-06,2.11,4
1363,0.000826,0.000792,-3.4e-05,-4.11,4
1364,0.000592,0.000514,-7.8e-05,-13.17,4
1365,0.000604,0.000592,-1.2e-05,-1.99,4
1366,0.00036,0.000465,0.000105,29.15,4
1367,0.000541,0.000462,-7.9e-05,-14.68,4
1368,0.000751,0.000751,0.0,0.04,4
1369,0.000641,0.000562,-8e-05,-12.41,4
1370,0.000478,0.000421,-5.7e-05,-11.94,4
1371,0.000734,0.000774,4e-05,5.43,4
1372,0.000592,0.000526,-6.6e-05,-11.13,4
1373,0.000497,0.000453,-4.3e-05,-8.74,4
1374,0.000829,0.000872,4.4e-05,5.26,4
1375,0.000531,0.000558,2.7e-05,5.11,4
1376,0.000638,0.000636,-3e-06,-0.41,4
1377,0.000885,0.000886,1e-06,0.13,4
1378,0.000697,0.000719,2.2e-05,3.09,4
1379,0.000734,0.000765,3.1e-05,4.25,4
1380,0.000518,0.000497,-2e-05,-3.95,4
1381,0.000853,0.000834,-1.9e-05,-2.2,4
1382,0.00036,0.000428,6.8e-05,18.96,4
1383,0.000531,0.000565,3.3e-05,6.3,4
1384,0.000956,0.000929,-2.7e-05,-2.79,4
1385,0.000817,0.000781,-3.6e-05,-4.39,4
1386,0.000413,0.000419,5e-06,1.3,4
1387,0.000641,0.000683,4.2e-05,6.55,4
1388,0.000691,0.000657,-3.4e-05,-4.88,4
1389,0.000604,0.000592,-1.2e-05,-2.05,4
1390,0.000546,0.000578,3.2e-05,5.95,4
1391,0.000398,0.000417,1.9e-05,4.65,4
1392,0.000767,0.000803,3.6e-05,4.67,4
1393,0.000443,0.000425,-1.8e-05,-4.11,4
1394,0.000413,0.00042,7e-06,1.68,4
1395,0.000522,0.000539,1.7e-05,3.34,4
1396,0.000691,0.000661,-3e-05,-4.35,4
1397,0.000441,0.000488,4.7e-05,10.61,4
1398,0.000426,0.000436,1e-05,2.38,4
1399,0.000503,0.000515,1.2e-05,2.47,4
1400,0.000638,0.000609,-2.9e-05,-4.59,4
1401,0.000856,0.000951,9.5e-05,11.08,4
1402,0.000464,0.000472,7e-06,1.59,4
1403,0.000807,0.00075,-5.7e-05,-7.11,4
1404,0.000592,0.000537,-5.6e-05,-9.39,4
1405,0.000591,0.000548,-4.3e-05,-7.33,4
1406,0.00036,0.000403,4.3e-05,12.07,4
1407,0.000541,0.000473,-6.8e-05,-12.64,4
1408,0.000438,0.000484,4.6e-05,10.45,4
1409,0.000472,0.000524,5.2e-05,11.12,4
1410,0.000526,0.000572,4.6e-05,8.67,4
1411,0.000598,0.00054,-5.8e-05,-9.75,4
1412,0.000555,0.000516,-3.9e-05,-6.95,4
1413,0.000497,0.000471,-2.6e-05,-5.15,4
1414,0.00036,0.00039,3.1e-05,8.51,4
1415,0.000713,0.000742,2.8e-05,3.98,4
1416,0.000638,0.000604,-3.4e-05,-5.39,4
1417,0.000856,0.000908,5.2e-05,6.03,4
1418,0.000783,0.000765,-1.9e-05,-2.39,4
1419,0.00108,0.001089,8e-06,0.78,4
1420,0.00081,0.00082,1e-05,1.27,4
1421,0.00047,0.000521,5.2e-05,11.0,4
1422,0.000676,0.00067,-6e-06,-0.95,4
1423,0.000716,0.000791,7.5e-05,10.54,4
1424,0.000956,0.000934,-2.2e-05,-2.26,4
1425,0.000641,0.000603,-3.9e-05,-6.02,4
1426,0.000697,0.000713,1.6e-05,2.34,4
1427,0.000641,0.000672,3.1e-05,4.84,4
1428,0.000651,0.000706,5.6e-05,8.54,4
1429,0.000497,0.000482,-1.5e-05,-3.0,4
1430,0.000739,0.000756,1.7e-05,2.24,4
1431,0.000749,0.000739,-1e-05,-1.35,4
1432,0.00122,0.001306,8.6e-05,7.04,4
1433,0.000428,0.000414,-1.3e-05,-3.1,4
1434,0.000796,0.000778,-1.8e-05,-2.25,4
1435,0.000703,0.000681,-2.2e-05,-3.12,4
1436,0.000611,0.000599,-1.2e-05,-1.94,4
1437,0.00047,0.000515,4.5e-05,9.67,4
1438,0.000829,0.000898,7e-05,8.42,4
1439,0.000503,0.000514,1.2e-05,2.38,4
1440,0.000869,0.000829,-4e-05,-4.6,4
1441,0.000466,0.000459,-7e-06,-1.46,4
1442,0.00066,0.00065,-1e-05,-1.58,4
1443,0.000826,0.000799,-2.8e-05,-3.35,4
1444,0.000611,0.000604,-7e-06,-1.12,4
1445,0.000591,0.000553,-3.8e-05,-6.44,4
1446,0.000665,0.00063,-3.5e-05,-5.31,4
1447,0.000846,0.000804,-4.3e-05,-5.03,4
1448,0.00122,0.001264,4.4e-05,3.63,4
1449,0.000428,0.000414,-1.4e-05,-3.17,4
1450,0.000413,0.000422,9e-06,2.15,4
1451,0.000791,0.000712,-7.9e-05,-9.95,4
1452,0.00081,0.000829,1.9e-05,2.38,4
1453,0.000853,0.000846,-7e-06,-0.83,4
1454,0.000558,0.000621,6.3e-05,11.31,4
1455,0.000716,0.000794,7.9e-05,10.97,4
1456,0.000568,0.000517,-5.1e-05,-8.91,4
1457,0.000428,0.000413,-1.4e-05,-3.33,4
1458,0.000796,0.000783,-1.3e-05,-1.68,4
1459,0.000807,0.000765,-4.2e-05,-5.17,4
1460,0.000592,0.000541,-5.1e-05,-8.64,4
1461,0.000544,0.000514,-3e-05,-5.58,4
1462,0.000739,0.000752,1.3e-05,1.75,4
1463,0.000503,0.000521,1.9e-05,3.73,4
1464,0.000444,0.000437,-7e-06,-1.59,4
1465,0.000443,0.000431,-1.2e-05,-2.63,4
1466,0.000464,0.000475,1.1e-05,2.35,4
1467,0.000703,0.000699,-4e-06,-0.56,4
1468,0.000499,0.000463,-3.6e-05,-7.2,4
1469,0.000851,0.000864,1.3e-05,1.55,4
1470,0.000676,0.000667,-9e-06,-1.3,4
1471,0.000531,0.00058,4.9e-05,9.14,4
1472,0.000568,0.000531,-3.7e-05,-6.58,4
1473,0.000817,0.000779,-3.7e-05,-4.57,4
1474,0.000413,0.000424,1.1e-05,2.69,4
1475,0.000641,0.000663,2.2e-05,3.41,4
1476,0.000592,0.000548,-4.5e-05,-7.54,4
1477,0.000853,0.000854,1e-06,0.15,4
1478,0.000558,0.000617,5.9e-05,10.65,4
1479,0.00053,0.000525,-5e-06,-1.03,4
1480,0.000411,0.000431,1.9e-05,4.65,4
1481,0.000428,0.000412,-1.6e-05,-3.75,4
1482,0.000413,0.000426,1.3e-05,3.14,4
1483,0.000807,0.000772,-3.5e-05,-4.3,4
1484,0.000576,0.000638,6.2e-05,10.74,4
1485,0.000441,0.000484,4.3e-05,9.8,4
1486,0.000426,0.000434,8e-06,1.9,4
1487,0.000716,0.000791,7.5e-05,10.47,4
1488,0.000767,0.000795,2.8e-05,3.59,4
1489,0.000472,0.000523,5.2e-05,10.93,4
1490,0.000397,0.000421,2.4e-05,5.93,4
1491,0.000522,0.00054,1.8e-05,3.45,4
1492,0.000691,0.000668,-2.3e-05,-3.31,4
1493,0.000544,0.000522,-2.2e-05,-4.01,4
1494,0.000691,0.000721,3.1e-05,4.44,4
1495,0.000749,0.00075,1e-06,0.11,4
1496,0.000935,0.000942,7e-06,0.7,4
1497,0.000817,0.000777,-3.9e-05,-4.84,4
1498,0.00066,0.000646,-1.5e-05,-2.22,4
1499,0.000522,0.000541,1.9e-05,3.64,4
1500,0.000499,0.000469,-3e-05,-6.01,4
1501,0.000647,0.000614,-3.3e-05,-5.14,4
1502,0.000558,0.00062,6.2e-05,11.17,4
1503,0.000541,0.000489,-5.2e-05,-9.59,4
1504,0.000568,0.000536,-3.2e-05,-5.56,4
1505,0.000678,0.000659,-1.9e-05,-2.79,4
1506,0.000596,0.00061,1.4e-05,2.34,4
1507,0.000791,0.000729,-6.2e-05,-7.87,4
1508,0.000651,0.000645,-6e-06,-0.9,4
1509,0.000441,0.000482,4.1e-05,9.34,4
1510,0.000582,0.000619,3.7e-05,6.37,4
1511,0.00053,0.00055,2e-05,3.76,4
1512,0.000568,0.000541,-2.7e-05,-4.74,4
1513,0.000678,0.000659,-2e-05,-2.9,4
1514,0.000526,0.000543,1.7e-05,3.16,4
1515,0.000807,0.00078,-2.7e-05,-3.3,4
1516,0.000758,0.000711,-4.7e-05,-6.18,4
1517,0.000544,0.000536,-8e-06,-1.52,4
1518,0.00036,0.000377,1.7e-05,4.82,4
1519,0.000749,0.000754,5e-06,0.67,4
1520,0.000438,0.000486,4.8e-05,10.89,4
1521,0.000466,0.000471,4e-06,0.92,4
1522,0.000596,0.000601,5e-06,0.89,4
1523,0.001037,0.001032,-6e-06,-0.56,4
1524,0.000518,0.000509,-9e-06,-1.75,4
1525,0.000851,0.000868,1.7e-05,2.03,4
1526,0.000829,0.000912,8.4e-05,10.1,4
1527,0.000398,0.000396,-2e-06,-0.47,4
1528,0.000438,0.000484,4.6e-05,10.54,4
1529,0.000472,0.000526,5.4e-05,11.48,4
1530,0.000464,0.000476,1.2e-05,2.51,4
1531,0.000598,0.000574,-2.4e-05,-4.05,4
1532,0.000691,0.000671,-2e-05,-2.87,4
1533,0.00047,0.00051,4.1e-05,8.7,4
1534,0.000665,0.000632,-3.3e-05,-4.92,4
1535,0.000749,0.000757,8e-06,1.02,4
1536,0.000956,0.000942,-1.3e-05,-1.4,4
1537,0.000428,0.00041,-1.8e-05,-4.19,4
1538,0.00066,0.000646,-1.4e-05,-2.15,4
1539,0.000522,0.000542,2e-05,3.82,4
1540,0.000541,0.000481,-6e-05,-11.14,4
1541,0.000591,0.000557,-3.4e-05,-5.79,4
1542,0.000546,0.000574,2.8e-05,5.15,4
1543,0.000398,0.00039,-8e-06,-1.98,4
1544,0.000438,0.000482,4.4e-05,10.02,4
1545,0.000823,0.000811,-1.2e-05,-1.43,4
1546,0.000697,0.000709,1.2e-05,1.76,4
1547,0.000598,0.000585,-1.3e-05,-2.18,4
1548,0.000541,0.000497,-4.4e-05,-8.1,4
1549,0.001104,0.001072,-3.2e-05,-2.88,4
1550,0.000829,0.000915,8.7e-05,10.48,4
1551,0.000503,0.00053,2.7e-05,5.39,4
1552,0.000638,0.0006,-3.9e-05,-6.05,4
1553,0.000443,0.000442,-1e-06,-0.28,4
1554,0.000796,0.000787,-9e-06,-1.1,4
1555,0.000703,0.000711,8e-06,1.1,4
1556,0.000576,0.00063,5.4e-05,9.31,4
1557,0.001104,0.001077,-2.6e-05,-2.38,4
1558,0.000665,0.000639,-2.6e-05,-3.97,4
1559,0.000713,0.000761,4.8e-05,6.74,4
1560,0.000438,0.000481,4.3e-05,9.73,4
1561,0.000443,0.000444,1e-06,0.22,4
1562,0.000783,0.000773,-1.1e-05,-1.38,4
1563,0.000807,0.000784,-2.3e-05,-2.87,4
1564,0.000541,0.000504,-3.7e-05,-6.88,4
1565,0.001104,0.001082,-2.2e-05,-1.98,4
1566,0.000691,0.000722,3.1e-05,4.56,4
1567,0.000688,0.000568,-0.00012,-17.48,4
1568,0.000751,0.000759,8e-06,1.13,4
1569,0.000678,0.000673,-6e-06,-0.82,4
1570,0.000596,0.000599,4e-06,0.59,4
1571,0.000703,0.000719,1.6e-05,2.22,4
1572,0.000518,0.00051,-8e-06,-1.57,4
1573,0.000497,0.000509,1.3e-05,2.52,4
1574,0.000739,0.000757,1.8e-05,2.4,4
1575,0.000688,0.000639,-5e-05,-7.22,4
1576,0.000869,0.00086,-9e-06,-1.0,4
1577,0.000641,0.000629,-1.3e-05,-1.98,4
1578,0.000478,0.000444,-3.4e-05,-7.11,4
1579,0.000734,0.000777,4.3e-05,5.81,4
1580,0.000499,0.000474,-2.5e-05,-4.95,4
1581,0.000851,0.00089,3.9e-05,4.58,4
1582,0.000691,0.000721,3e-05,4.38,4
1583,0.000713,0.000764,5e-05,7.06,4
1584,0.00122,0.001239,2e-05,1.6,4
1585,0.000618,0.000603,-1.4e-05,-2.3,4
1586,0.000783,0.000782,-1e-06,-0.16,4
1587,0.00108,0.001097,1.7e-05,1.57,4
1588,0.000541,0.000514,-2.6e-05,-4.89,4
1589,0.000822,0.000885,6.3e-05,7.66,4
1590,0.000665,0.000636,-2.9e-05,-4.31,4
1591,0.000503,0.000532,2.9e-05,5.78,4
1592,0.000751,0.000764,1.3e-05,1.79,4
1593,0.000823,0.000825,2e-06,0.24,4
1594,0.000783,0.000787,3e-06,0.4,4
1595,0.000807,0.000787,-2.1e-05,-2.54,4
1596,0.000499,0.000477,-2.2e-05,-4.37,4
1597,0.000441,0.000483,4.2e-05,9.49,4
1598,0.000558,0.000614,5.6e-05,10.06,4
1599,0.000687,0.000567,-0.00012,-17.5,4
1600,0.000438,0.000483,4.5e-05,10.3,4
1601,0.000952,0.000982,3e-05,3.19,4
1602,0.000413,0.000429,1.6e-05,3.92,4
1603,0.000826,0.000813,-1.4e-05,-1.67,4
1604,0.000611,0.000615,3e-06,0.57,4
1605,0.00047,0.00051,4.1e-05,8.65,4
1606,0.000828,0.000791,-3.7e-05,-4.49,4
1607,0.000846,0.00083,-1.7e-05,-1.99,4
1608,0.000638,0.000599,-3.9e-05,-6.12,4
1609,0.000823,0.000829,6e-06,0.7,4
1610,0.000397,0.000415,1.8e-05,4.55,4
1611,0.000825,0.000931,0.000106,12.83,4
1612,0.000592,0.000555,-3.7e-05,-6.3,4
1613,0.000497,0.000518,2.1e-05,4.27,4
1614,0.000691,0.000715,2.5e-05,3.58,4
1615,0.000398,0.000385,-1.4e-05,-3.43,4
1616,0.000751,0.000767,1.6e-05,2.14,4
1617,0.000817,0.000774,-4.3e-05,-5.22,4
1618,0.000783,0.000789,6e-06,0.74,4
1619,0.000628,0.000624,-4e-06,-0.69,4
1620,0.000555,0.000558,4e-06,0.64,4
1621,0.000497,0.000522,2.6e-05,5.16,4
1622,0.000426,0.000438,1.2e-05,2.86,4
1623,0.000398,0.000383,-1.5e-05,-3.85,4
1624,0.000568,0.000548,-2e-05,-3.51,4
1625,0.000618,0.000615,-3e-06,-0.47,4
1626,0.000413,0.000434,2.1e-05,4.97,4
1627,0.000522,0.000541,2e-05,3.75,4
1628,0.000691,0.000671,-2e-05,-2.83,4
1629,0.000853,0.00087,1.7e-05,2.03,4
1630,0.000582,0.000635,5.3e-05,9.02,4
1631,0.000687,0.000621,-6.5e-05,-9.54,4
1632,0.000869,0.000868,-1e-06,-0.08,4
1633,0.000472,0.000526,5.5e-05,11.59,4
1634,0.000697,0.000703,6e-06,0.83,4
1635,0.000807,0.000791,-1.6e-05,-2.0,4
1636,0.000611,0.000619,8e-06,1.36,4
1637,0.000558,0.000543,-1.5e-05,-2.72,4
1638,0.000546,0.000566,2e-05,3.73,4
1639,0.000688,0.000678,-1.1e-05,-1.57,4
1640,0.000444,0.000453,9e-06,1.91,4
1641,0.000428,0.000407,-2e-05,-4.74,4
1642,0.000783,0.000792,9e-06,1.13,4
1643,0.000522,0.000541,1.9e-05,3.72,4
1644,0.000499,0.000484,-1.5e-05,-3.0,4
1645,0.000853,0.000868,1.5e-05,1.81,4
1646,0.000659,0.000729,7e-05,10.61,4
1647,0.000687,0.000658,-2.8e-05,-4.11,4
1648,0.000444,0.000456,1.2e-05,2.6,4
1649,0.000952,0.000983,3.1e-05,3.3,4
1650,0.000464,0.000471,6e-06,1.4,4
1651,0.000826,0.000818,-9e-06,-1.06,4
1652,0.000518,0.000507,-1e-05,-2.0,4
1653,0.000591,0.000568,-2.3e-05,-3.87,4
1654,0.000739,0.000771,3.2e-05,4.33,4
1655,0.000541,0.00051,-3.1e-05,-5.78,4
1656,0.000638,0.000601,-3.7e-05,-5.84,4
1657,0.000823,0.000836,1.3e-05,1.63,4
1658,0.000397,0.000412,1.5e-05,3.76,4
1659,0.00108,0.001111,3.1e-05,2.86,4
1660,0.000541,0.000522,-1.9e-05,-3.46,4
1661,0.000647,0.000614,-3.3e-05,-5.14,4
1662,0.000828,0.000807,-2.1e-05,-2.59,4
1663,0.000531,0.000585,5.4e-05,10.18,4
1664,0.000568,0.000549,-1.9e-05,-3.29,4
1665,0.000472,0.000526,5.4e-05,11.56,4
1666,0.000464,0.000472,8e-06,1.67,4
1667,0.000825,0.000922,9.8e-05,11.82,4
1668,0.000758,0.000732,-2.6e-05,-3.47,4
1669,0.00047,0.000505,3.5e-05,7.52,4
1670,0.000558,0.000611,5.3e-05,9.49,4
1671,0.000713,0.000774,6.1e-05,8.48,4
1672,0.000869,0.000872,3e-06,0.39,4
1673,0.000466,0.000491,2.5e-05,5.41,4
1674,0.000526,0.000531,5e-06,0.94,4
1675,0.000641,0.000659,1.8e-05,2.84,4
1676,0.000518,0.000508,-1e-05,-1.93,4
1677,0.000441,0.000482,4.2e-05,9.46,4
1678,0.000665,0.000634,-3.1e-05,-4.65,4
1679,0.000398,0.000379,-1.9e-05,-4.79,4
1680,0.000444,0.000459,1.4e-05,3.24,4
1681,0.000443,0.000441,-2e-06,-0.37,4
1682,0.000641,0.00061,-3.1e-05,-4.81,4
1683,0.000598,0.000599,1e-06,0.11,4
1684,0.000691,0.000672,-1.8e-05,-2.65,4
1685,0.00047,0.000502,3.3e-05,6.94,4
1686,0.000426,0.000438,1.2e-05,2.83,4
1687,0.000713,0.000773,5.9e-05,8.34,4
1688,0.000568,0.000552,-1.6e-05,-2.86,4
1689,0.000885,0.000899,1.4e-05,1.63,4
1690,0.000526,0.000531,5e-06,0.92,4
1691,0.000522,0.000541,1.9e-05,3.64,4
1692,0.000691,0.000673,-1.7e-05,-2.5,4
1693,0.000647,0.000621,-2.7e-05,-4.1,4
1694,0.000739,0.000774,3.5e-05,4.7,4
1695,0.000846,0.000849,2e-06,0.25,4
1696,0.000638,0.000601,-3.8e-05,-5.92,4
1697,0.000443,0.000443,0.0,0.06,4
1698,0.000397,0.00041,1.3e-05,3.26,4
1699,0.000703,0.000723,2e-05,2.83,4
1700,0.000611,0.00062,9e-06,1.44,4
1701,0.000591,0.000571,-2.1e-05,-3.47,4
1702,0.000426,0.000438,1.2e-05,2.93,4
1703,0.000688,0.000707,1.8e-05,2.68,4
1704,0.000638,0.0006,-3.8e-05,-5.95,4
1705,0.000472,0.000525,5.3e-05,11.26,4
1706,0.000526,0.000531,5e-06,0.97,4
1707,0.000807,0.000796,-1.1e-05,-1.39,4
1708,0.000555,0.000573,1.9e-05,3.39,4
1709,0.000851,0.000906,5.5e-05,6.51,4
1710,0.000582,0.000636,5.4e-05,9.26,4
1711,0.000531,0.000589,5.8e-05,10.94,4
1712,0.000444,0.00046,1.6e-05,3.68,4
1713,0.000428,0.000406,-2.2e-05,-5.16,4
1714,0.000697,0.0007,2e-06,0.35,4
1715,0.000641,0.000653,1.2e-05,1.82,4
1716,0.000555,0.000581,2.6e-05,4.68,4
1717,0.000558,0.000554,-4e-06,-0.71,4
1718,0.000829,0.00092,9.2e-05,11.06,4
1719,0.000846,0.000855,9e-06,1.01,4
1720,0.000956,0.000948,-8e-06,-0.83,4
1721,0.000472,0.000522,5.1e-05,10.73,4
1722,0.000413,0.000436,2.3e-05,5.53,4
1723,0.000703,0.000727,2.4e-05,3.39,4
1724,0.000691,0.000676,-1.5e-05,-2.2,4
1725,0.000647,0.000624,-2.3e-05,-3.51,4
1726,0.00036,0.000372,1.2e-05,3.35,4
1727,0.00053,0.00059,6e-05,11.32,4
1728,0.000444,0.000461,1.7e-05,3.84,4
1729,0.000817,0.000773,-4.4e-05,-5.38,4
1730,0.000783,0.000799,1.5e-05,1.95,4
1731,0.001037,0.001044,6e-06,0.62,4
1732,0.000576,0.000628,5.2e-05,9.04,4
1733,0.000544,0.000548,4e-06,0.78,4
1734,0.000676,0.000681,5e-06,0.68,4
1735,0.000688,0.000724,3.6e-05,5.17,4
1736,0.000751,0.000772,2.1e-05,2.82,4
1737,0.000817,0.000771,-4.6e-05,-5.58,4
1738,0.000596,0.000603,8e-06,1.3,4
1739,0.00108,0.00112,4e-05,3.66,4
1740,0.000576,0.000622,4.5e-05,7.87,4
1741,0.000604,0.000579,-2.5e-05,-4.18,4
1742,0.000426,0.000439,1.3e-05,3.07,4
1743,0.000687,0.000683,-4e-06,-0.53,4
1744,0.000638,0.0006,-3.8e-05,-6.03,4
1745,0.000472,0.000521,4.9e-05,10.44,4
1746,0.00066,0.000667,7e-06,1.02,4
1747,0.000628,0.00061,-1.8e-05,-2.84,4
1748,0.000576,0.000617,4.1e-05,7.12,4
1749,0.000558,0.000558,-1e-06,-0.1,4
1750,0.000582,0.000632,5e-05,8.62,4
1751,0.000503,0.000532,2.9e-05,5.86,4
1752,0.000568,0.000555,-1.3e-05,-2.31,4
1753,0.000428,0.000404,-2.3e-05,-5.47,4
1754,0.00066,0.000668,8e-06,1.17,4
1755,0.000522,0.00054,1.8e-05,3.44,4
1756,0.000518,0.000508,-1e-05,-1.86,4
1757,0.001104,0.001093,-1.1e-05,-0.96,4
1758,0.00036,0.000365,5e-06,1.45,4
1759,0.000716,0.000794,7.8e-05,10.88,4
1760,0.000935,0.00096,2.4e-05,2.6,4
1761,0.000472,0.00052,4.8e-05,10.26,4
1762,0.000478,0.000444,-3.4e-05,-7.14,4
1763,0.000703,0.00073,2.7e-05,3.86,4
1764,0.000592,0.00056,-3.3e-05,-5.49,4
1765,0.000441,0.000483,4.2e-05,9.63,4
1766,0.000582,0.000629,4.7e-05,8.06,4
1767,0.000503,0.000534,3.1e-05,6.24,4
1768,0.000767,0.000787,2e-05,2.64,4
1769,0.000428,0.000405,-2.3e-05,-5.26,4
1770,0.000413,0.000439,2.6e-05,6.29,4
1771,0.000522,0.00054,1.8e-05,3.38,4
1772,0.000758,0.000736,-2.2e-05,-2.96,4
1773,0.000851,0.000909,5.8e-05,6.85,4
1774,0.000665,0.00063,-3.5e-05,-5.25,4
1775,0.000846,0.000859,1.3e-05,1.48,4
1776,0.000444,0.000462,1.8e-05,3.97,4
1777,0.000443,0.000445,2e-06,0.56,4
1778,0.000464,0.00047,6e-06,1.24,4
1779,0.00079,0.000746,-4.4e-05,-5.6,4
1780,0.000499,0.000491,-8e-06,-1.6,4
1781,0.000591,0.000573,-1.9e-05,-3.13,4
1782,0.000426,0.000439,1.4e-05,3.27,4
1783,0.000541,0.000526,-1.6e-05,-2.89,4
1784,0.000956,0.000948,-7e-06,-0.78,4
1785,0.000678,0.000686,8e-06,1.17,4
1786,0.000697,0.000695,-2e-06,-0.31,4
1787,0.000598,0.00061,1.2e-05,1.94,4
1788,0.000592,0.000562,-3e-05,-5.15,4
1789,0.000853,0.000871,1.8e-05,2.13,4
1790,0.000659,0.000723,6.4e-05,9.74,4
1791,0.000541,0.000533,-8e-06,-1.49,4
1792,0.000411,0.00043,1.9e-05,4.55,4
1793,0.000428,0.000405,-2.2e-05,-5.2,4
1794,0.000413,0.00044,2.7e-05,6.53,4
1795,0.000734,0.000766,3.2e-05,4.32,4
1796,0.000651,0.00064,-1.1e-05,-1.69,4
1797,0.000544,0.000552,8e-06,1.55,4
1798,0.00036,0.000359,-1e-06,-0.14,4
1799,0.000531,0.000593,6.2e-05,11.6,4
1800,0.001088,0.001233,0.000145,13.3,8
1801,0.000824,0.000733,-9.1e-05,-11.05,8
1802,0.0006,0.000583,-1.7e-05,-2.75,8
1803,0.000809,0.001078,0.000269,33.22,8
1804,0.000745,0.000638,-0.000107,-14.39,8
1805,0.000747,0.000822,7.5e-05,10.01,8
1806,0.000549,0.000613,6.4e-05,11.6,8
1807,0.000737,0.000827,9e-05,12.24,8
1808,0.00056,0.000558,-2e-06,-0.43,8
1809,0.001162,0.001206,4.4e-05,3.81,8
1810,0.000508,0.000543,3.6e-05,6.99,8
1811,0.000759,0.000716,-4.3e-05,-5.65,8
1812,0.000614,0.000516,-9.8e-05,-15.91,8
1813,0.000648,0.000705,5.7e-05,8.75,8
1814,0.000574,0.000578,4e-06,0.72,8
1815,0.000839,0.00087,3.1e-05,3.68,8
1816,0.00058,0.000671,9.1e-05,15.72,8
1817,0.000711,0.000771,6e-05,8.47,8
1818,0.000896,0.000857,-3.9e-05,-4.35,8
1819,0.000853,0.000882,2.9e-05,3.43,8
1820,0.000809,0.000663,-0.000147,-18.12,8
1821,0.00058,0.000616,3.7e-05,6.32,8
1822,0.000549,0.000577,2.8e-05,5.02,8
1823,0.000414,0.000456,4.2e-05,10.19,8
1824,0.00056,0.000573,1.3e-05,2.38,8
1825,0.001255,0.001352,9.8e-05,7.78,8
1826,0.000508,0.000478,-2.9e-05,-5.77,8
1827,0.000731,0.000661,-7.1e-05,-9.65,8
1828,0.000809,0.000724,-8.5e-05,-10.54,8
1829,0.000648,0.000677,2.9e-05,4.4,8
1830,0.000574,0.000575,1e-06,0.1,8
1831,0.000933,0.000935,2e-06,0.25,8
1832,0.000712,0.000787,7.5e-05,10.57,8
1833,0.000662,0.000715,5.2e-05,7.9,8
1834,0.000504,0.000632,0.000128,25.39,8
1835,0.001319,0.001352,3.4e-05,2.56,8
1836,0.000745,0.000708,-3.7e-05,-5.0,8
1837,0.000809,0.000849,4e-05,4.96,8
1838,0.000671,0.000743,7.2e-05,10.72,8
1839,0.000737,0.000749,1.2e-05,1.69,8
1840,0.000815,0.000837,2.2e-05,2.74,8
1841,0.000446,0.000431,-1.5e-05,-3.26,8
1842,0.000718,0.000694,-2.4e-05,-3.33,8
1843,0.001044,0.000928,-0.000116,-11.13,8
1844,0.000745,0.000719,-2.6e-05,-3.48,8
1845,0.000802,0.000804,2e-06,0.25,8
1846,0.000592,0.000629,3.7e-05,6.2,8
1847,0.000739,0.000642,-9.8e-05,-13.25,8
1848,0.000508,0.000461,-4.7e-05,-9.3,8
1849,0.000925,0.000898,-2.6e-05,-2.86,8
1850,0.000508,0.000457,-5.1e-05,-10.05,8
1851,0.001319,0.001375,5.7e-05,4.32,8
1852,0.000439,0.000516,7.8e-05,17.71,8
1853,0.00058,0.000576,-3e-06,-0.6,8
1854,0.000919,0.000853,-6.7e-05,-7.28,8
1855,0.00122,0.001137,-8.2e-05,-6.76,8
1856,0.000712,0.000758,4.6e-05,6.46,8
1857,0.000711,0.000757,4.6e-05,6.44,8
1858,0.000626,0.000673,4.7e-05,7.55,8
1859,0.000731,0.00066,-7.1e-05,-9.69,8
1860,0.000723,0.00091,0.000187,25.8,8
1861,0.000566,0.00069,0.000125,22.06,8
1862,0.000549,0.000579,3e-05,5.48,8
1863,0.000737,0.000714,-2.3e-05,-3.07,8
1864,0.000636,0.000533,-0.000103,-16.15,8
1865,0.000506,0.000527,2e-05,4.02,8
1866,0.000828,0.000839,1.1e-05,1.32,8
1867,0.000731,0.000678,-5.4e-05,-7.34,8
1868,0.000439,0.000468,2.9e-05,6.66,8
1869,0.000964,0.000839,-0.000125,-12.92,8
1870,0.000671,0.000525,-0.000146,-21.73,8
1871,0.000732,0.000753,2.1e-05,2.85,8
1872,0.000712,0.000734,2.2e-05,3.13,8
1873,0.000662,0.000704,4.1e-05,6.24,8
1874,0.000759,0.000745,-1.4e-05,-1.83,8
1875,0.00087,0.000773,-9.7e-05,-11.19,8
1876,0.000614,0.000615,1e-06,0.17,8
1877,0.000964,0.000921,-4.3e-05,-4.49,8
1878,0.000671,0.000557,-0.000114,-17.02,8
1879,0.000737,0.000726,-1e-05,-1.39,8
1880,0.000716,0.000672,-4.4e-05,-6.15,8
1881,0.000711,0.000749,3.9e-05,5.43,8
1882,0.000492,0.000403,-8.9e-05,-18.01,8
1883,0.000731,0.000688,-4.4e-05,-5.96,8
1884,0.000809,0.000734,-7.5e-05,-9.3,8
1885,0.000564,0.000547,-1.7e-05,-2.98,8
1886,0.000919,0.000853,-6.6e-05,-7.19,8
1887,0.000933,0.000941,9e-06,0.93,8
1888,0.00056,0.000551,-9e-06,-1.64,8
1889,0.000443,0.000443,1e-06,0.12,8
1890,0.000504,0.000504,-0.0,-0.04,8
1891,0.000731,0.000691,-4e-05,-5.47,8
1892,0.000614,0.000626,1.2e-05,1.97,8
1893,0.001057,0.000915,-0.000143,-13.49,8
1894,0.000592,0.000594,2e-06,0.3,8
1895,0.000793,0.000803,1e-05,1.25,8
1896,0.00055,0.000607,5.7e-05,10.31,8
1897,0.000723,0.000677,-4.6e-05,-6.4,8
1898,0.000672,0.000781,0.000109,16.24,8
1899,0.000809,0.000823,1.3e-05,1.64,8
1900,0.000745,0.000742,-4e-06,-0.5,8
1901,0.000564,0.000539,-2.5e-05,-4.43,8
1902,0.000671,0.000576,-9.5e-05,-14.2,8
1903,0.000793,0.00078,-1.3e-05,-1.69,8
1904,0.000712,0.000718,7e-06,0.95,8
1905,0.000723,0.000695,-2.8e-05,-3.86,8
1906,0.000504,0.000485,-2e-05,-3.87,8
1907,0.001319,0.001382,6.3e-05,4.8,8
1908,0.000488,0.000491,2e-06,0.43,8
1909,0.000564,0.000539,-2.5e-05,-4.38,8
1910,0.000919,0.000873,-4.7e-05,-5.06,8
1911,0.00122,0.001197,-2.2e-05,-1.83,8
1912,0.000508,0.000441,-6.7e-05,-13.18,8
1913,0.000506,0.000487,-2e-05,-3.87,8
1914,0.000896,0.000897,2e-06,0.18,8
1915,0.000865,0.000801,-6.4e-05,-7.42,8
1916,0.00058,0.000619,3.8e-05,6.59,8
1917,0.000736,0.000711,-2.5e-05,-3.38,8
1918,0.000674,0.00068,7e-06,1.02,8
1919,0.000839,0.000782,-5.7e-05,-6.74,8
1920,0.000586,0.000523,-6.2e-05,-10.67,8
1921,0.000443,0.000429,-1.4e-05,-3.09,8
1922,0.000504,0.000483,-2.1e-05,-4.26,8
1923,0.000865,0.000834,-3.1e-05,-3.6,8
1924,0.000614,0.000636,2.3e-05,3.71,8
1925,0.000802,0.000802,-0.0,-0.0,8
1926,0.000671,0.000641,-3e-05,-4.52,8
1927,0.000543,0.000466,-7.7e-05,-14.1,8
1928,0.000815,0.000769,-4.6e-05,-5.66,8
1929,0.000723,0.000704,-1.9e-05,-2.61,8
1930,0.000828,0.000857,2.9e-05,3.48,8
1931,0.001132,0.001114,-1.7e-05,-1.54,8
1932,0.000555,0.000577,2.2e-05,3.94,8
1933,0.000564,0.000545,-1.9e-05,-3.33,8
1934,0.000671,0.000644,-2.7e-05,-4.09,8
1935,0.000607,0.000665,5.8e-05,9.55,8
1936,0.001088,0.001041,-4.7e-05,-4.34,8
1937,0.000662,0.000704,4.2e-05,6.36,8
1938,0.0006,0.000559,-4e-05,-6.74,8
1939,0.000865,0.000852,-1.3e-05,-1.51,8
1940,0.000809,0.000742,-6.7e-05,-8.3,8
1941,0.000747,0.000685,-6.2e-05,-8.3,8
1942,0.000592,0.000577,-1.6e-05,-2.63,8
1943,0.000751,0.000653,-9.8e-05,-12.99,8
1944,0.000716,0.000676,-3.9e-05,-5.51,8
1945,0.000669,0.000658,-1.2e-05,-1.73,8
1946,0.000677,0.000651,-2.5e-05,-3.75,8
1947,0.000911,0.000868,-4.2e-05,-4.63,8
1948,0.000533,0.000496,-3.7e-05,-6.99,8
1949,0.000648,0.00064,-8e-06,-1.25,8
1950,0.000919,0.000886,-3.3e-05,-3.61,8
1951,0.000839,0.000774,-6.5e-05,-7.75,8
1952,0.000815,0.000789,-2.6e-05,-3.22,8
1953,0.001162,0.001184,2.2e-05,1.89,8
1954,0.000508,0.000448,-6e-05,-11.84,8
1955,0.001319,0.001378,5.9e-05,4.48,8
1956,0.00069,0.000615,-7.5e-05,-10.85,8
1957,0.000849,0.000814,-3.5e-05,-4.12,8
1958,0.000592,0.000582,-1e-05,-1.71,8
1959,0.000607,0.000621,1.4e-05,2.29,8
1960,0.000846,0.000838,-8e-06,-0.99,8
1961,0.000443,0.000416,-2.6e-05,-5.93,8
1962,0.000677,0.000651,-2.6e-05,-3.78,8
1963,0.001003,0.001049,4.6e-05,4.57,8
1964,0.000723,0.000782,5.9e-05,8.13,8
1965,0.000736,0.000747,1.1e-05,1.53,8
1966,0.000549,0.000588,3.9e-05,7.15,8
1967,0.000737,0.000721,-1.5e-05,-2.08,8
1968,0.00056,0.000554,-7e-06,-1.16,8
1969,0.001162,0.001178,1.7e-05,1.42,8
1970,0.000759,0.000733,-2.6e-05,-3.38,8
1971,0.001319,0.001375,5.7e-05,4.29,8
1972,0.000749,0.000681,-6.9e-05,-9.18,8
1973,0.000802,0.000803,1e-06,0.16,8
1974,0.000592,0.000583,-9e-06,-1.55,8
1975,0.000543,0.000495,-4.8e-05,-8.84,8
1976,0.00058,0.000562,-1.8e-05,-3.08,8
1977,0.000669,0.000642,-2.7e-05,-4.0,8
1978,0.000508,0.000453,-5.5e-05,-10.86,8
1979,0.000731,0.000691,-4e-05,-5.49,8
1980,0.000614,0.000639,2.6e-05,4.2,8
1981,0.00058,0.000521,-5.9e-05,-10.13,8
1982,0.000574,0.000551,-2.3e-05,-3.94,8
1983,0.000414,0.000393,-2.1e-05,-5.07,8
1984,0.00058,0.000558,-2.1e-05,-3.7,8
1985,0.000446,0.000427,-1.9e-05,-4.3,8
1986,0.000759,0.000738,-2e-05,-2.67,8
1987,0.001003,0.001041,3.8e-05,3.78,8
1988,0.000488,0.000474,-1.5e-05,-3.05,8
1989,0.000809,0.000776,-3.3e-05,-4.04,8
1990,0.000668,0.000661,-7e-06,-1.06,8
1991,0.000739,0.000628,-0.000111,-15.07,8
1992,0.000846,0.000826,-1.9e-05,-2.3,8
1993,0.000662,0.000705,4.3e-05,6.51,8
1994,0.000672,0.00072,4.8e-05,7.08,8
1995,0.000625,0.00061,-1.5e-05,-2.33,8
1996,0.000782,0.000755,-2.6e-05,-3.37,8
1997,0.000648,0.00063,-1.8e-05,-2.84,8
1998,0.000873,0.000875,2e-06,0.23,8
1999,0.000737,0.000721,-1.5e-05,-2.08,8
2000,0.000712,0.000695,-1.6e-05,-2.28,8
2001,0.000824,0.000844,2e-05,2.43,8
2002,0.000677,0.00066,-1.7e-05,-2.53,8
2003,0.00087,0.000805,-6.6e-05,-7.58,8
2004,0.00069,0.00063,-6e-05,-8.77,8
2005,0.000964,0.000904,-6e-05,-6.2,8
2006,0.000671,0.000602,-6.9e-05,-10.31,8
2007,0.000607,0.000609,2e-06,0.31,8
2008,0.000636,0.000578,-5.8e-05,-9.14,8
2009,0.000711,0.000738,2.7e-05,3.85,8
2010,0.000828,0.000856,2.8e-05,3.42,8
2011,0.000853,0.000771,-8.2e-05,-9.62,8
2012,0.00058,0.000628,4.7e-05,8.16,8
2013,0.000809,0.00077,-3.9e-05,-4.84,8
2014,0.000592,0.000586,-7e-06,-1.15,8
2015,0.000839,0.000796,-4.3e-05,-5.13,8
2016,0.000846,0.000827,-1.9e-05,-2.26,8
2017,0.000446,0.000438,-8e-06,-1.7,8
2018,0.000626,0.000608,-1.8e-05,-2.93,8
2019,0.001044,0.000951,-9.3e-05,-8.92,8
2020,0.000533,0.000498,-3.5e-05,-6.54,8
2021,0.000736,0.000752,1.6e-05,2.16,8
2022,0.0007,0.000718,1.8e-05,2.57,8
2023,0.000793,0.000749,-4.4e-05,-5.5,8
2024,0.00056,0.000562,2e-06,0.27,8
2025,0.000446,0.000447,1e-06,0.25,8
2026,0.000828,0.000864,3.6e-05,4.33,8
2027,0.000759,0.000667,-9.2e-05,-12.17,8
2028,0.000614,0.000641,2.8e-05,4.5,8
2029,0.000736,0.000759,2.3e-05,3.12,8
2030,0.000549,0.000593,4.4e-05,7.99,8
2031,0.000839,0.00081,-2.9e-05,-3.4,8
2032,0.000773,0.000797,2.5e-05,3.22,8
2033,0.000443,0.000416,-2.7e-05,-6.12,8
2034,0.000492,0.00045,-4.2e-05,-8.56,8
2035,0.000853,0.000786,-6.7e-05,-7.9,8
2036,0.000782,0.000755,-2.6e-05,-3.35,8
2037,0.000747,0.000721,-2.6e-05,-3.49,8
2038,0.0007,0.000704,4e-06,0.59,8
2039,0.000414,0.000387,-2.7e-05,-6.48,8
2040,0.000712,0.000691,-2e-05,-2.86,8
2041,0.000662,0.000701,3.9e-05,5.85,8
2042,0.000504,0.000465,-4e-05,-7.84,8
2043,0.000625,0.000624,-1e-06,-0.16,8
2044,0.000533,0.000502,-3.1e-05,-5.84,8
2045,0.000809,0.000776,-3.3e-05,-4.1,8
2046,0.000873,0.000875,2e-06,0.28,8
2047,0.000543,0.000494,-4.9e-05,-9.09,8
2048,0.00058,0.000559,-2.1e-05,-3.59,8
2049,0.000446,0.000457,1.1e-05,2.52,8
2050,0.000508,0.000454,-5.3e-05,-10.52,8
2051,0.000911,0.000878,-3.3e-05,-3.6,8
2052,0.000723,0.000752,2.9e-05,4.04,8
2053,0.000964,0.000926,-3.7e-05,-3.88,8
2054,0.000671,0.00064,-3.2e-05,-4.7,8
2055,0.000739,0.000658,-8.2e-05,-11.07,8
2056,0.000716,0.000678,-3.8e-05,-5.31,8
2057,0.000506,0.000501,-5e-06,-0.98,8
2058,0.000492,0.000465,-2.7e-05,-5.43,8
2059,0.000625,0.000622,-3e-06,-0.46,8
2060,0.000533,0.000507,-2.6e-05,-4.84,8
2061,0.000566,0.000591,2.5e-05,4.48,8
2062,0.000549,0.000596,4.7e-05,8.55,8
2063,0.000751,0.000668,-8.3e-05,-11.1,8
2064,0.00055,0.000579,2.9e-05,5.19,8
2065,0.000925,0.000886,-3.8e-05,-4.15,8
2066,0.000504,0.000462,-4.3e-05,-8.44,8
2067,0.000731,0.000694,-3.7e-05,-5.07,8
2068,0.00069,0.000656,-3.4e-05,-4.9,8
2069,0.000566,0.000575,9e-06,1.67,8
2070,0.000671,0.000609,-6.2e-05,-9.27,8
2071,0.000751,0.000688,-6.3e-05,-8.42,8
2072,0.000508,0.000456,-5.2e-05,-10.25,8
2073,0.000662,0.000693,3.1e-05,4.69,8
2074,0.000677,0.000664,-1.3e-05,-1.91,8
2075,0.000625,0.000618,-7e-06,-1.16,8
2076,0.00069,0.000663,-2.7e-05,-3.88,8
2077,0.000564,0.000561,-3e-06,-0.48,8
2078,0.000574,0.00055,-2.4e-05,-4.17,8
2079,0.000607,0.000604,-3e-06,-0.54,8
2080,0.000508,0.000451,-5.7e-05,-11.23,8
2081,0.000446,0.000458,1.3e-05,2.87,8
2082,0.000677,0.000669,-8e-06,-1.17,8
2083,0.00087,0.000826,-4.4e-05,-5.09,8
2084,0.000782,0.000759,-2.3e-05,-2.96,8
2085,0.000964,0.00095,-1.4e-05,-1.47,8
2086,0.000671,0.000648,-2.3e-05,-3.5,8
2087,0.000682,0.000678,-4e-06,-0.62,8
2088,0.000586,0.000542,-4.3e-05,-7.36,8
2089,0.000506,0.000508,1e-06,0.29,8
2090,0.000492,0.000476,-1.6e-05,-3.19,8
2091,0.000625,0.000618,-7e-06,-1.15,8
2092,0.000745,0.000757,1.2e-05,1.56,8
2093,0.00058,0.00052,-5.9e-05,-10.26,8
2094,0.000873,0.000879,7e-06,0.78,8
2095,0.00122,0.001211,-8e-06,-0.68,8
2096,0.000716,0.000684,-3.2e-05,-4.45,8
2097,0.000669,0.000633,-3.6e-05,-5.34,8
2098,0.000828,0.000873,4.6e-05,5.51,8
2099,0.000731,0.000696,-3.6e-05,-4.86,8
2100,0.000439,0.000433,-5e-06,-1.24,8
2101,0.000964,0.000963,-1e-06,-0.14,8
2102,0.0007,0.0007,1e-06,0.11,8
2103,0.000682,0.000688,7e-06,0.98,8
2104,0.000636,0.000592,-4.3e-05,-6.82,8
2105,0.000446,0.000464,1.9e-05,4.22,8
2106,0.000626,0.000605,-2.1e-05,-3.33,8
2107,0.000731,0.000696,-3.5e-05,-4.77,8
2108,0.00069,0.000669,-2.1e-05,-3.03,8
2109,0.000802,0.000816,1.4e-05,1.79,8
2110,0.000919,0.000894,-2.6e-05,-2.82,8
2111,0.000607,0.000605,-2e-06,-0.29,8
2112,0.000636,0.000598,-3.8e-05,-5.94,8
2113,0.000925,0.000903,-2.2e-05,-2.35,8
2114,0.000718,0.000692,-2.5e-05,-3.52,8
2115,0.001003,0.001039,3.6e-05,3.57,8
2116,0.000782,0.000761,-2.1e-05,-2.65,8
2117,0.000564,0.000564,0.0,0.05,8
2118,0.000671,0.000645,-2.6e-05,-3.87,8
2119,0.000682,0.000685,3e-06,0.45,8
2120,0.000586,0.000554,-3.2e-05,-5.41,8
2121,0.000506,0.000511,5e-06,0.93,8
2122,0.000828,0.000877,4.9e-05,5.89,8
2123,0.000865,0.000869,4e-06,0.42,8
2124,0.000614,0.000644,3.1e-05,5.04,8
2125,0.001158,0.001193,3.5e-05,3.01,8
2126,0.0007,0.000694,-6e-06,-0.88,8
2127,0.000414,0.000397,-1.7e-05,-4.12,8
2128,0.000712,0.000693,-1.9e-05,-2.61,8
2129,0.000443,0.00042,-2.3e-05,-5.1,8
2130,0.000718,0.000705,-1.3e-05,-1.77,8
2131,0.000759,0.000695,-6.4e-05,-8.45,8
2132,0.000533,0.000512,-2.1e-05,-3.86,8
2133,0.000564,0.00057,6e-06,1.08,8
2134,0.000698,0.000647,-5.1e-05,-7.24,8
2135,0.000739,0.000672,-6.8e-05,-9.14,8
2136,0.00058,0.000565,-1.5e-05,-2.6,8
2137,0.000925,0.000925,0.0,0.03,8
2138,0.000718,0.000715,-3e-06,-0.37,8
2139,0.001319,0.001367,4.8e-05,3.64,8
2140,0.000782,0.000761,-2e-05,-2.62,8
2141,0.000564,0.000573,9e-06,1.65,8
2142,0.000671,0.000648,-2.3e-05,-3.46,8
2143,0.000739,0.000683,-5.7e-05,-7.65,8
2144,0.000586,0.000559,-2.6e-05,-4.52,8
2145,0.000669,0.000634,-3.5e-05,-5.26,8
2146,0.000492,0.000487,-5e-06,-0.94,8
2147,0.001044,0.000982,-6.2e-05,-5.92,8
2148,0.000555,0.000589,3.4e-05,6.05,8
2149,0.000736,0.000774,3.8e-05,5.1,8
2150,0.000574,0.00055,-2.4e-05,-4.22,8
2151,0.000732,0.000761,2.8e-05,3.87,8
2152,0.000712,0.000692,-1.9e-05,-2.72,8
2153,0.000443,0.00042,-2.3e-05,-5.22,8
2154,0.000677,0.000679,2e-06,0.3,8
2155,0.000731,0.000698,-3.4e-05,-4.6,8
2156,0.000809,0.000768,-4.1e-05,-5.12,8
2157,0.000736,0.000776,4e-05,5.39,8
2158,0.000574,0.000554,-2e-05,-3.47,8
2159,0.000414,0.000401,-1.3e-05,-3.25,8
2160,0.000846,0.000829,-1.7e-05,-1.97,8
2161,0.000446,0.000474,2.8e-05,6.24,8
2162,0.000504,0.000464,-4.1e-05,-8.05,8
2163,0.000759,0.000701,-5.8e-05,-7.6,8
2164,0.000809,0.000771,-3.8e-05,-4.7,8
2165,0.000802,0.000821,1.9e-05,2.38,8
2166,0.000549,0.000603,5.4e-05,9.89,8
2167,0.000543,0.000517,-2.6e-05,-4.81,8
2168,0.000586,0.000562,-2.3e-05,-3.96,8
2169,0.00096,0.000853,-0.000107,-11.14,8
2170,0.000672,0.000698,2.5e-05,3.78,8
2171,0.000911,0.000909,-1e-06,-0.16,8
2172,0.000782,0.000759,-2.2e-05,-2.85,8
2173,0.000564,0.000575,1.2e-05,2.1,8
2174,0.000698,0.000667,-3.1e-05,-4.43,8
2175,0.000682,0.000691,9e-06,1.28,8
2176,0.00058,0.000566,-1.4e-05,-2.33,8
2177,0.000925,0.000938,1.4e-05,1.46,8
2178,0.000504,0.000462,-4.2e-05,-8.42,8
2179,0.000911,0.000916,5e-06,0.57,8
2180,0.000439,0.000427,-1.2e-05,-2.71,8
2181,0.000648,0.00063,-1.8e-05,-2.78,8
2182,0.000698,0.000679,-1.9e-05,-2.72,8
2183,0.000543,0.000525,-1.8e-05,-3.35,8
2184,0.000636,0.0006,-3.6e-05,-5.67,8
2185,0.000669,0.000631,-3.8e-05,-5.64,8
2186,0.000677,0.000681,4e-06,0.62,8
2187,0.000911,0.00092,1e-05,1.08,8
2188,0.000439,0.000427,-1.2e-05,-2.64,8
2189,0.00058,0.000529,-5e-05,-8.68,8
2190,0.000671,0.000615,-5.6e-05,-8.36,8
2191,0.000682,0.000686,4e-06,0.59,8
2192,0.001088,0.001035,-5.3e-05,-4.91,8
2193,0.000446,0.000478,3.3e-05,7.32,8
2194,0.000896,0.00092,2.5e-05,2.75,8
2195,0.000809,0.000766,-4.3e-05,-5.35,8
2196,0.000488,0.000482,-6e-06,-1.22,8
2197,0.000802,0.00082,1.9e-05,2.34,8
2198,0.000671,0.00065,-2.2e-05,-3.25,8
2199,0.000839,0.000843,4e-06,0.53,8
2200,0.000773,0.000768,-4e-06,-0.55,8
2201,0.000925,0.000943,1.8e-05,1.91,8
2202,0.000718,0.000727,9e-06,1.26,8
2203,0.000731,0.000699,-3.3e-05,-4.45,8
2204,0.000533,0.000516,-1.7e-05,-3.15,8
2205,0.000566,0.000565,-0.0,-0.04,8
2206,0.000549,0.000607,5.8e-05,10.58,8
2207,0.000414,0.000405,-1e-05,-2.34,8
2208,0.00058,0.000568,-1.1e-05,-1.95,8
2209,0.000443,0.000418,-2.5e-05,-5.6,8
2210,0.000626,0.00061,-1.6e-05,-2.51,8
2211,0.000731,0.0007,-3.1e-05,-4.29,8
2212,0.000488,0.000483,-5e-06,-1.1,8
2213,0.000849,0.000789,-6e-05,-7.11,8
2214,0.000823,0.000801,-2.2e-05,-2.67,8
2215,0.000607,0.000603,-4e-06,-0.71,8
2216,0.000636,0.000605,-3.1e-05,-4.85,8
2217,0.000662,0.000688,2.6e-05,3.96,8
2218,0.000677,0.000684,7e-06,1.09,8
2219,0.000865,0.000882,1.7e-05,1.97,8
2220,0.000749,0.000686,-6.3e-05,-8.39,8
2221,0.001057,0.000986,-7.1e-05,-6.72,8
2222,0.000873,0.000886,1.3e-05,1.54,8
2223,0.00122,0.001232,1.2e-05,1.0,8
2224,0.000712,0.000691,-2e-05,-2.88,8
2225,0.000723,0.000701,-2.3e-05,-3.12,8
2226,0.000608,0.000522,-8.6e-05,-14.08,8
2227,0.000625,0.000619,-6e-06,-0.95,8
2228,0.00058,0.000599,1.9e-05,3.2,8
2229,0.001158,0.001178,2e-05,1.77,8
2230,0.000671,0.00065,-2.1e-05,-3.15,8
2231,0.000682,0.000681,-1e-06,-0.09,8
2232,0.00058,0.000569,-1e-05,-1.75,8
2233,0.00096,0.000888,-7.2e-05,-7.49,8
2234,0.000608,0.000541,-6.7e-05,-10.97,8
2235,0.001044,0.000998,-4.6e-05,-4.37,8
2236,0.000439,0.00043,-9e-06,-2.02,8
2237,0.000566,0.000561,-5e-06,-0.82,8
2238,0.000668,0.000685,1.6e-05,2.46,8
2239,0.000751,0.000695,-5.6e-05,-7.46,8
2240,0.00055,0.000591,4.1e-05,7.48,8
2241,0.000711,0.000738,2.7e-05,3.79,8
2242,0.000828,0.000877,4.9e-05,5.92,8
2243,0.000731,0.000701,-3e-05,-4.16,8
2244,0.000439,0.00043,-8e-06,-1.89,8
2245,0.000564,0.000582,1.8e-05,3.27,8
2246,0.000671,0.000653,-1.8e-05,-2.7,8
2247,0.000739,0.000693,-4.6e-05,-6.28,8
2248,0.000586,0.000564,-2.1e-05,-3.63,8
2249,0.000824,0.000862,3.8e-05,4.58,8
2250,0.0006,0.000556,-4.4e-05,-7.26,8
2251,0.001319,0.00137,5.1e-05,3.9,8
2252,0.00058,0.000601,2.1e-05,3.63,8
2253,0.000736,0.000789,5.3e-05,7.15,8
2254,0.000668,0.000687,1.9e-05,2.83,8
2255,0.000414,0.000405,-9e-06,-2.15,8
2256,0.000508,0.000455,-5.3e-05,-10.46,8
2257,0.000711,0.000737,2.6e-05,3.64,8
2258,0.000718,0.000726,8e-06,1.09,8
2259,0.000853,0.000801,-5.2e-05,-6.11,8
2260,0.000723,0.000746,2.3e-05,3.19,8
2261,0.000747,0.000759,1.1e-05,1.53,8
2262,0.000592,0.000594,1e-06,0.22,8
2263,0.000737,0.000721,-1.6e-05,-2.16,8
2264,0.00055,0.000583,3.3e-05,6.05,8
2265,0.000669,0.00063,-3.9e-05,-5.81,8
2266,0.000608,0.000552,-5.6e-05,-9.21,8
2267,0.001003,0.001051,4.8e-05,4.75,8
2268,0.000782,0.000761,-2e-05,-2.62,8
2269,0.000747,0.000765,1.8e-05,2.35,8
2270,0.000823,0.000809,-1.4e-05,-1.66,8
2271,0.000737,0.000722,-1.5e-05,-1.99,8
2272,0.00056,0.000568,8e-06,1.4,8
2273,0.001162,0.001169,8e-06,0.65,8
2274,0.000759,0.000749,-9e-06,-1.21,8
2275,0.000865,0.000895,3e-05,3.42,8
2276,0.000555,0.000576,2.1e-05,3.85,8
2277,0.000566,0.000559,-7e-06,-1.17,8
2278,0.000574,0.000554,-2e-05,-3.49,8
2279,0.000732,0.000769,3.7e-05,5.02,8
2280,0.00055,0.00058,3e-05,5.52,8
2281,0.00096,0.000906,-5.4e-05,-5.59,8
2282,0.000896,0.000928,3.2e-05,3.6,8
2283,0.000625,0.000622,-3e-06,-0.55,8
2284,0.000782,0.000761,-2e-05,-2.61,8
2285,0.000566,0.000558,-7e-06,-1.32,8
2286,0.000674,0.000715,4.1e-05,6.15,8
2287,0.000933,0.000953,2.1e-05,2.2,8
2288,0.000636,0.000608,-2.8e-05,-4.36,8
2289,0.000711,0.000735,2.4e-05,3.43,8
2290,0.000492,0.0005,8e-06,1.64,8
2291,0.001044,0.001013,-3.1e-05,-2.95,8
2292,0.00069,0.00067,-2e-05,-2.89,8
2293,0.000809,0.00078,-2.9e-05,-3.58,8
2294,0.000549,0.000606,5.7e-05,10.33,8
2295,0.000933,0.000954,2.1e-05,2.3,8
2296,0.00055,0.000575,2.5e-05,4.53,8
2297,0.000662,0.000692,3e-05,4.51,8
2298,0.000896,0.00093,3.4e-05,3.78,8
2299,0.001003,0.001059,5.6e-05,5.59,8
2300,0.00058,0.000603,2.3e-05,3.89,8
2301,0.000736,0.000788,5.2e-05,7.0,8
2302,0.000668,0.000694,2.5e-05,3.8,8
2303,0.000933,0.000952,2e-05,2.13,8
2304,0.000712,0.000692,-2e-05,-2.75,8
2305,0.000723,0.000715,-8e-06,-1.14,8
2306,0.000626,0.000612,-1.4e-05,-2.28,8
2307,0.000759,0.000709,-5e-05,-6.61,8
2308,0.000533,0.000518,-1.5e-05,-2.84,8
2309,0.000849,0.000799,-5e-05,-5.89,8
2310,0.000574,0.000563,-1.1e-05,-1.95,8
2311,0.000751,0.000702,-4.9e-05,-6.53,8
2312,0.000586,0.000566,-2e-05,-3.34,8
2313,0.000669,0.00063,-3.9e-05,-5.87,8
2314,0.000759,0.000755,-4e-06,-0.51,8
2315,0.000625,0.000624,-1e-06,-0.14,8
2316,0.000723,0.000736,1.3e-05,1.77,8
2317,0.000564,0.000585,2.2e-05,3.83,8
2318,0.000668,0.000696,2.7e-05,4.1,8
2319,0.000543,0.00055,7e-06,1.26,8
2320,0.000815,0.000817,2e-06,0.29,8
2321,0.000662,0.000691,2.9e-05,4.31,8
2322,0.000492,0.000504,1.2e-05,2.48,8
2323,0.000759,0.000713,-4.6e-05,-6.07,8
2324,0.00069,0.000674,-1.6e-05,-2.32,8
2325,0.000648,0.000633,-1.6e-05,-2.42,8
2326,0.000592,0.000593,1e-06,0.16,8
2327,0.000839,0.000869,3e-05,3.57,8
2328,0.000586,0.000566,-2e-05,-3.34,8
2329,0.000506,0.000515,8e-06,1.67,8
2330,0.0006,0.000555,-4.5e-05,-7.46,8
2331,0.001319,0.001371,5.2e-05,3.94,8
2332,0.000809,0.000786,-2.3e-05,-2.84,8
2333,0.001057,0.00101,-4.7e-05,-4.47,8
2334,0.000592,0.000593,1e-06,0.16,8
2335,0.000793,0.000745,-4.8e-05,-6.03,8
2336,0.00058,0.000571,-9e-06,-1.53,8
2337,0.000446,0.000482,3.6e-05,8.06,8
2338,0.000608,0.000562,-4.6e-05,-7.54,8
2339,0.000853,0.000819,-3.4e-05,-4.03,8
2340,0.000488,0.000479,-9e-06,-1.84,8
2341,0.00058,0.000529,-5.1e-05,-8.72,8
2342,0.000671,0.000625,-4.6e-05,-6.85,8
2343,0.000543,0.000556,1.3e-05,2.36,8
2344,0.000508,0.000453,-5.5e-05,-10.74,8
2345,0.000669,0.00063,-3.9e-05,-5.87,8
2346,0.000672,0.000694,2.2e-05,3.21,8
2347,0.000809,0.000759,-5.1e-05,-6.25,8
2348,0.000439,0.000431,-8e-06,-1.77,8
2349,0.00058,0.000535,-4.5e-05,-7.69,8
2350,0.000574,0.000562,-1.2e-05,-2.01,8
2351,0.000793,0.000741,-5.2e-05,-6.58,8
2352,0.00056,0.00057,1e-05,1.78,8
2353,0.000723,0.000724,1e-06,0.07,8
2354,0.000672,0.000688,1.6e-05,2.32,8
2355,0.00087,0.000847,-2.4e-05,-2.72,8
2356,0.000749,0.000706,-4.3e-05,-5.79,8
2357,0.000566,0.000554,-1.2e-05,-2.11,8
2358,0.000698,0.000688,-1e-05,-1.45,8
2359,0.000543,0.000558,1.5e-05,2.71,8
2360,0.000508,0.000452,-5.6e-05,-11.05,8
2361,0.000723,0.000727,4e-06,0.49,8
2362,0.000508,0.000462,-4.5e-05,-8.92,8
2363,0.000759,0.000712,-4.7e-05,-6.19,8
2364,0.000533,0.000519,-1.4e-05,-2.61,8
2365,0.000564,0.000588,2.4e-05,4.25,8
2366,0.000698,0.000691,-7e-06,-0.99,8
2367,0.000414,0.000405,-9e-06,-2.2,8
2368,0.00055,0.000571,2.1e-05,3.82,8
2369,0.001255,0.001287,3.2e-05,2.54,8
2370,0.00051,0.000466,-4.3e-05,-8.53,8
2371,0.001003,0.001058,5.5e-05,5.48,8
2372,0.000555,0.000566,1.1e-05,2.07,8
2373,0.000564,0.000588,2.4e-05,4.29,8
2374,0.000698,0.000694,-4e-06,-0.56,8
2375,0.000793,0.000734,-5.9e-05,-7.49,8
2376,0.001088,0.001059,-3e-05,-2.72,8
2377,0.000824,0.000867,4.3e-05,5.21,8
2378,0.000718,0.000726,8e-06,1.09,8
2379,0.000871,0.000856,-1.5e-05,-1.72,8
2380,0.000614,0.000647,3.3e-05,5.42,8
2381,0.000648,0.000636,-1.2e-05,-1.88,8
2382,0.000574,0.000563,-1.1e-05,-1.9,8
2383,0.000543,0.00056,1.7e-05,3.21,8
2384,0.000508,0.00045,-5.8e-05,-11.36,8
2385,0.000443,0.000422,-2.1e-05,-4.75,8
2386,0.000608,0.000571,-3.7e-05,-6.14,8
2387,0.000911,0.000923,1.2e-05,1.33,8
2388,0.00058,0.000607,2.7e-05,4.59,8
2389,0.000648,0.000634,-1.4e-05,-2.16,8
2390,0.000823,0.000802,-2e-05,-2.45,8
2391,0.000414,0.000408,-6e-06,-1.49,8
2392,0.000773,0.000755,-1.8e-05,-2.29,8
2393,0.000669,0.000628,-4.2e-05,-6.22,8
2394,0.000504,0.000457,-4.7e-05,-9.3,8
2395,0.000625,0.000627,2e-06,0.37,8
2396,0.000488,0.000482,-7e-06,-1.4,8
2397,0.000564,0.00059,2.6e-05,4.67,8
2398,0.000574,0.000564,-1e-05,-1.77,8
2399,0.000751,0.000711,-4e-05,-5.28,8
2400,0.000938,0.000947,9e-06,0.94,16
2401,0.000534,0.00056,2.6e-05,4.92,16
2402,0.000451,0.000534,8.3e-05,18.3,16
2403,0.000665,0.000656,-9e-06,-1.33,16
2404,0.000545,0.000548,3e-06,0.52,16
2405,0.000637,0.000507,-0.00013,-20.42,16
2406,0.000707,0.000765,5.8e-05,8.19,16
2407,0.000562,0.000623,6e-05,10.72,16
2408,0.000553,0.000556,2e-06,0.45,16
2409,0.000617,0.000601,-1.6e-05,-2.59,16
2410,0.000564,0.00059,2.5e-05,4.51,16
2411,0.00066,0.000752,9.2e-05,13.9,16
2412,0.000713,0.00056,-0.000153,-21.46,16
2413,0.000829,0.000815,-1.4e-05,-1.69,16
2414,0.000578,0.000609,3.2e-05,5.52,16
2415,0.000631,0.000694,6.3e-05,10.06,16
2416,0.000629,0.000694,6.5e-05,10.36,16
2417,0.000548,0.000501,-4.7e-05,-8.49,16
2418,0.000466,0.000452,-1.3e-05,-2.86,16
2419,0.000758,0.000643,-0.000115,-15.14,16
2420,0.000616,0.000708,9.2e-05,14.93,16
2421,0.000659,0.000687,2.8e-05,4.19,16
2422,0.00078,0.000768,-1.2e-05,-1.53,16
2423,0.000848,0.000794,-5.4e-05,-6.32,16
2424,0.000911,0.001114,0.000204,22.35,16
2425,0.000534,0.000572,3.8e-05,7.2,16
2426,0.000564,0.000555,-9e-06,-1.66,16
2427,0.000864,0.000966,0.000102,11.77,16
2428,0.000598,0.000605,7e-06,1.13,16
2429,0.000715,0.000871,0.000156,21.74,16
2430,0.000734,0.000749,1.5e-05,1.98,16
2431,0.000646,0.000654,8e-06,1.25,16
2432,0.000938,0.00088,-5.8e-05,-6.19,16
2433,0.000492,0.000444,-4.8e-05,-9.83,16
2434,0.000451,0.000435,-1.6e-05,-3.57,16
2435,0.000782,0.000716,-6.6e-05,-8.48,16
2436,0.00061,0.000609,-1e-06,-0.18,16
2437,0.000831,0.000849,1.9e-05,2.27,16
2438,0.000735,0.000687,-4.8e-05,-6.52,16
2439,0.000646,0.000651,5e-06,0.78,16
2440,0.00089,0.000803,-8.7e-05,-9.75,16
2441,0.000492,0.000451,-4.2e-05,-8.46,16
2442,0.000749,0.000777,2.8e-05,3.8,16
2443,0.000864,0.000896,3.1e-05,3.64,16
2444,0.000838,0.000787,-5.1e-05,-6.05,16
2445,0.000637,0.000557,-8e-05,-12.49,16
2446,0.00078,0.000792,1.2e-05,1.5,16
2447,0.000574,0.000568,-6e-06,-1.13,16
2448,0.000911,0.000915,5e-06,0.52,16
2449,0.000821,0.000826,6e-06,0.67,16
2450,0.000631,0.000544,-8.7e-05,-13.86,16
2451,0.000845,0.000814,-3.1e-05,-3.68,16
2452,0.000806,0.000813,7e-06,0.85,16
2453,0.000783,0.000806,2.4e-05,3.0,16
2454,0.000707,0.000715,8e-06,1.09,16
2455,0.000599,0.000511,-8.8e-05,-14.67,16
2456,0.000638,0.000573,-6.5e-05,-10.12,16
2457,0.000518,0.000495,-2.3e-05,-4.39,16
2458,0.000749,0.000722,-2.6e-05,-3.53,16
2459,0.001014,0.001079,6.5e-05,6.43,16
2460,0.000541,0.000539,-2e-06,-0.3,16
2461,0.000694,0.000685,-9e-06,-1.28,16
2462,0.000588,0.000592,3e-06,0.54,16
2463,0.000973,0.001032,5.9e-05,6.07,16
2464,0.000734,0.000673,-6.1e-05,-8.33,16
2465,0.000617,0.000585,-3.3e-05,-5.27,16
2466,0.000631,0.000592,-4e-05,-6.26,16
2467,0.000394,0.000334,-6e-05,-15.18,16
2468,0.000616,0.000596,-2e-05,-3.26,16
2469,0.000783,0.00076,-2.3e-05,-2.9,16
2470,0.000735,0.000696,-4e-05,-5.4,16
2471,0.000631,0.000634,4e-06,0.61,16
2472,0.00089,0.000817,-7.3e-05,-8.15,16
2473,0.000787,0.000717,-7e-05,-8.88,16
2474,0.000631,0.000611,-2e-05,-3.23,16
2475,0.000845,0.000777,-6.8e-05,-8.0,16
2476,0.00032,0.000288,-3.2e-05,-10.02,16
2477,0.000783,0.000749,-3.4e-05,-4.29,16
2478,0.00078,0.00079,1e-05,1.29,16
2479,0.000593,0.000619,2.6e-05,4.32,16
2480,0.000638,0.000589,-4.9e-05,-7.62,16
2481,0.000667,0.000574,-9.4e-05,-14.04,16
2482,0.000466,0.000429,-3.7e-05,-7.97,16
2483,0.000782,0.000749,-3.4e-05,-4.31,16
2484,0.000838,0.000798,-4e-05,-4.72,16
2485,0.000535,0.00058,4.6e-05,8.52,16
2486,0.000768,0.00068,-8.9e-05,-11.52,16
2487,0.000973,0.001018,4.5e-05,4.64,16
2488,0.000638,0.000607,-3.1e-05,-4.88,16
2489,0.000534,0.00055,1.6e-05,3.01,16
2490,0.000466,0.000428,-3.8e-05,-8.09,16
2491,0.000665,0.000665,0.0,0.03,16
2492,0.000838,0.000806,-3.2e-05,-3.79,16
2493,0.000659,0.000667,7e-06,1.13,16
2494,0.00078,0.000789,9e-06,1.11,16
2495,0.000562,0.000539,-2.3e-05,-4.16,16
2496,0.000911,0.000894,-1.7e-05,-1.82,16
2497,0.000492,0.000452,-4e-05,-8.13,16
2498,0.000629,0.000581,-4.8e-05,-7.62,16
2499,0.000898,0.000883,-1.4e-05,-1.58,16
2500,0.000838,0.000806,-3.1e-05,-3.71,16
2501,0.000807,0.000874,6.8e-05,8.38,16
2502,0.000578,0.000528,-4.9e-05,-8.51,16
2503,0.000593,0.00059,-3e-06,-0.53,16
2504,0.000629,0.000629,-0.0,-0.0,16
2505,0.000548,0.000495,-5.3e-05,-9.73,16
2506,0.000451,0.000411,-4e-05,-8.94,16
2507,0.000665,0.000667,2e-06,0.24,16
2508,0.000616,0.00058,-3.6e-05,-5.82,16
2509,0.000831,0.000792,-3.8e-05,-4.6,16
2510,0.000634,0.000573,-6.2e-05,-9.71,16
2511,0.000734,0.000723,-1.1e-05,-1.56,16
2512,0.000524,0.0005,-2.4e-05,-4.66,16
2513,0.000717,0.00071,-7e-06,-0.97,16
2514,0.000451,0.000408,-4.3e-05,-9.5,16
2515,0.000782,0.000766,-1.7e-05,-2.14,16
2516,0.000598,0.000602,4e-06,0.6,16
2517,0.000637,0.000574,-6.3e-05,-9.95,16
2518,0.000588,0.000583,-5e-06,-0.85,16
2519,0.00066,0.000608,-5.2e-05,-7.86,16
2520,0.000553,0.000558,5e-06,0.84,16
2521,0.000632,0.00063,-2e-06,-0.29,16
2522,0.000997,0.000935,-6.2e-05,-6.22,16
2523,0.00066,0.000668,8e-06,1.28,16
2524,0.000545,0.000484,-6.1e-05,-11.24,16
2525,0.000637,0.000586,-5e-05,-7.92,16
2526,0.000622,0.000592,-3e-05,-4.79,16
2527,0.000574,0.000576,2e-06,0.28,16
2528,0.000938,0.000879,-6e-05,-6.35,16
2529,0.000632,0.000608,-2.4e-05,-3.76,16
2530,0.000466,0.000427,-3.9e-05,-8.38,16
2531,0.000394,0.00035,-4.4e-05,-11.15,16
2532,0.000616,0.000575,-4.1e-05,-6.64,16
2533,0.000659,0.000659,-1e-06,-0.09,16
2534,0.000578,0.000549,-2.9e-05,-4.94,16
2535,0.00066,0.000655,-4e-06,-0.66,16
2536,0.000755,0.000751,-4e-06,-0.56,16
2537,0.000492,0.000464,-2.9e-05,-5.86,16
2538,0.000473,0.000494,2.1e-05,4.49,16
2539,0.000447,0.000447,0.0,0.01,16
2540,0.000701,0.000644,-5.7e-05,-8.13,16
2541,0.000832,0.000846,1.4e-05,1.69,16
2542,0.000634,0.000589,-4.5e-05,-7.12,16
2543,0.000734,0.000694,-4.1e-05,-5.53,16
2544,0.000764,0.000693,-7.1e-05,-9.29,16
2545,0.000518,0.000502,-1.6e-05,-3.06,16
2546,0.000785,0.000845,6e-05,7.65,16
2547,0.000758,0.000657,-0.000101,-13.3,16
2548,0.000806,0.000813,7e-06,0.87,16
2549,0.000838,0.000834,-4e-06,-0.48,16
2550,0.000634,0.000598,-3.7e-05,-5.78,16
2551,0.000973,0.001002,2.9e-05,2.96,16
2552,0.00089,0.000831,-5.9e-05,-6.65,16
2553,0.000667,0.000613,-5.4e-05,-8.15,16
2554,0.000451,0.000409,-4.2e-05,-9.26,16
2555,0.000394,0.000384,-9e-06,-2.36,16
2556,0.000541,0.000489,-5.3e-05,-9.7,16
2557,0.000637,0.000597,-4e-05,-6.25,16
2558,0.000578,0.000563,-1.5e-05,-2.58,16
2559,0.00066,0.000679,1.9e-05,2.89,16
2560,0.000911,0.000883,-2.7e-05,-3.01,16
2561,0.000617,0.000594,-2.4e-05,-3.84,16
2562,0.000564,0.000523,-4.1e-05,-7.31,16
2563,0.000447,0.000447,-1e-06,-0.18,16
2564,0.000713,0.000625,-8.8e-05,-12.39,16
2565,0.00051,0.000427,-8.3e-05,-16.28,16
2566,0.000634,0.000602,-3.3e-05,-5.13,16
2567,0.000848,0.000785,-6.2e-05,-7.33,16
2568,0.000734,0.000678,-5.7e-05,-7.71,16
2569,0.000534,0.000553,2e-05,3.68,16
2570,0.000631,0.00063,-2e-06,-0.28,16
2571,0.000447,0.000457,9e-06,2.06,16
2572,0.00061,0.000574,-3.7e-05,-6.02,16
2573,0.000637,0.000602,-3.5e-05,-5.46,16
2574,0.000802,0.000723,-8e-05,-9.95,16
2575,0.000734,0.000722,-1.2e-05,-1.67,16
2576,0.000734,0.000679,-5.5e-05,-7.48,16
2577,0.000821,0.000743,-7.8e-05,-9.54,16
2578,0.000451,0.00041,-4.1e-05,-9.06,16
2579,0.000394,0.000399,6e-06,1.42,16
2580,0.000526,0.000533,7e-06,1.29,16
2581,0.000829,0.000767,-6.2e-05,-7.52,16
2582,0.000622,0.000627,5e-06,0.83,16
2583,0.000807,0.000785,-2.1e-05,-2.66,16
2584,0.000554,0.000494,-6e-05,-10.83,16
2585,0.000492,0.000459,-3.3e-05,-6.71,16
2586,0.000473,0.000451,-2.3e-05,-4.76,16
2587,0.000447,0.000462,1.4e-05,3.16,16
2588,0.00032,0.000289,-3.1e-05,-9.82,16
2589,0.00051,0.000443,-6.7e-05,-13.06,16
2590,0.000768,0.000709,-5.9e-05,-7.72,16
2591,0.000574,0.000572,-2e-06,-0.42,16
2592,0.000554,0.000495,-6e-05,-10.8,16
2593,0.000703,0.00066,-4.3e-05,-6.1,16
2594,0.000564,0.000523,-4.1e-05,-7.33,16
2595,0.000758,0.000691,-6.6e-05,-8.77,16
2596,0.00061,0.000574,-3.6e-05,-5.95,16
2597,0.000829,0.00078,-4.9e-05,-5.9,16
2598,0.000768,0.000723,-4.6e-05,-5.96,16
2599,0.000848,0.00082,-2.8e-05,-3.28,16
2600,0.000629,0.000621,-7e-06,-1.13,16
2601,0.000667,0.000637,-3.1e-05,-4.58,16
2602,0.000631,0.000637,6e-06,0.9,16
2603,0.000553,0.000534,-1.9e-05,-3.37,16
2604,0.00032,0.000286,-3.4e-05,-10.73,16
2605,0.000838,0.000839,1e-06,0.12,16
2606,0.000563,0.000519,-4.4e-05,-7.83,16
2607,0.000562,0.000544,-1.8e-05,-3.27,16
2608,0.000734,0.000681,-5.4e-05,-7.3,16
2609,0.000667,0.000646,-2.1e-05,-3.19,16
2610,0.000631,0.000644,1.3e-05,2.0,16
2611,0.000665,0.000654,-1.1e-05,-1.6,16
2612,0.00061,0.000577,-3.3e-05,-5.46,16
2613,0.000637,0.000606,-3.1e-05,-4.89,16
2614,0.000768,0.000726,-4.2e-05,-5.45,16
2615,0.000734,0.000735,1e-06,0.11,16
2616,0.000638,0.000614,-2.4e-05,-3.7,16
2617,0.000667,0.000653,-1.4e-05,-2.16,16
2618,0.000451,0.00041,-4.2e-05,-9.25,16
2619,0.000553,0.000531,-2.2e-05,-4.02,16
2620,0.000598,0.000594,-4e-06,-0.7,16
2621,0.000783,0.000748,-3.5e-05,-4.45,16
2622,0.000805,0.000787,-1.7e-05,-2.15,16
2623,0.000562,0.00054,-2.2e-05,-3.91,16
2624,0.000638,0.000618,-2e-05,-3.1,16
2625,0.000717,0.000698,-1.9e-05,-2.63,16
2626,0.000564,0.000519,-4.5e-05,-8.05,16
2627,0.000553,0.000535,-1.8e-05,-3.21,16
2628,0.000838,0.000813,-2.4e-05,-2.91,16
2629,0.000807,0.000812,5e-06,0.65,16
2630,0.000563,0.000553,-1e-05,-1.79,16
2631,0.000646,0.000653,8e-06,1.16,16
2632,0.00089,0.000842,-4.8e-05,-5.43,16
2633,0.000787,0.000709,-7.8e-05,-9.92,16
2634,0.000561,0.000511,-5e-05,-8.9,16
2635,0.000553,0.00054,-1.3e-05,-2.33,16
2636,0.000545,0.000468,-7.6e-05,-14.01,16
2637,0.000535,0.000543,8e-06,1.56,16
2638,0.000768,0.000731,-3.7e-05,-4.8,16
2639,0.00066,0.000679,1.9e-05,2.9,16
2640,0.000629,0.00062,-9e-06,-1.43,16
2641,0.000787,0.000712,-7.4e-05,-9.46,16
2642,0.000561,0.000529,-3.3e-05,-5.8,16
2643,0.000447,0.000469,2.1e-05,4.79,16
2644,0.000526,0.000538,1.1e-05,2.15,16
2645,0.000715,0.000719,4e-06,0.52,16
2646,0.000622,0.000633,1.1e-05,1.81,16
2647,0.00066,0.00069,3e-05,4.51,16
2648,0.000553,0.000572,1.9e-05,3.44,16
2649,0.000755,0.000719,-3.6e-05,-4.76,16
2650,0.000451,0.000411,-4e-05,-8.91,16
2651,0.00066,0.000649,-1.1e-05,-1.71,16
2652,0.00061,0.000581,-2.9e-05,-4.82,16
2653,0.000807,0.000809,2e-06,0.26,16
2654,0.000563,0.000572,9e-06,1.63,16
2655,0.000599,0.000559,-4.1e-05,-6.77,16
2656,0.000524,0.000511,-1.3e-05,-2.45,16
2657,0.000787,0.000718,-6.9e-05,-8.77,16
2658,0.000561,0.000536,-2.6e-05,-4.54,16
2659,0.000665,0.000655,-1e-05,-1.5,16
2660,0.000838,0.000813,-2.4e-05,-2.91,16
2661,0.000659,0.000666,7e-06,1.06,16
2662,0.000588,0.000568,-2e-05,-3.4,16
2663,0.000734,0.000752,1.8e-05,2.45,16
2664,0.000938,0.000886,-5.2e-05,-5.59,16
2665,0.000703,0.000672,-3.1e-05,-4.4,16
2666,0.000629,0.000577,-5.2e-05,-8.29,16
2667,0.000665,0.000658,-7e-06,-1.08,16
2668,0.000806,0.000808,1e-06,0.17,16
2669,0.000831,0.000745,-8.5e-05,-10.25,16
2670,0.000563,0.00058,1.7e-05,3.03,16
2671,0.000807,0.000764,-4.3e-05,-5.28,16
2672,0.000629,0.000611,-1.8e-05,-2.81,16
2673,0.000518,0.000509,-9e-06,-1.74,16
2674,0.000859,0.00091,5.2e-05,6.02,16
2675,0.000845,0.000746,-9.8e-05,-11.65,16
2676,0.000541,0.000464,-7.7e-05,-14.22,16
2677,0.00051,0.000447,-6.3e-05,-12.36,16
2678,0.00078,0.000778,-2e-06,-0.27,16
2679,0.000734,0.000754,2e-05,2.73,16
2680,0.000734,0.000676,-5.8e-05,-7.9,16
2681,0.000755,0.000716,-3.9e-05,-5.13,16
2682,0.000561,0.000539,-2.2e-05,-3.93,16
2683,0.000447,0.00047,2.3e-05,5.05,16
2684,0.000545,0.000486,-5.9e-05,-10.86,16
2685,0.000783,0.000753,-3e-05,-3.79,16
2686,0.000734,0.000713,-2.2e-05,-2.94,16
2687,0.00066,0.000701,4.1e-05,6.27,16
2688,0.000734,0.000675,-5.9e-05,-8.07,16
2689,0.000548,0.000527,-2e-05,-3.72,16
2690,0.000749,0.000713,-3.6e-05,-4.78,16
2691,0.000447,0.000471,2.3e-05,5.2,16
2692,0.00032,0.000288,-3.2e-05,-9.91,16
2693,0.000807,0.000805,-2e-06,-0.26,16
2694,0.000805,0.000792,-1.3e-05,-1.6,16
2695,0.000631,0.000628,-3e-06,-0.49,16
2696,0.000629,0.000606,-2.2e-05,-3.55,16
2697,0.000755,0.000719,-3.5e-05,-4.68,16
2698,0.000997,0.000976,-2.1e-05,-2.11,16
2699,0.000553,0.000543,-1e-05,-1.78,16
2700,0.00032,0.00029,-3e-05,-9.45,16
2701,0.000829,0.000791,-3.8e-05,-4.62,16
2702,0.000563,0.000585,2.2e-05,3.97,16
2703,0.000848,0.000833,-1.5e-05,-1.78,16
2704,0.000629,0.000607,-2.2e-05,-3.48,16
2705,0.000821,0.000739,-8.2e-05,-9.97,16
2706,0.000564,0.000515,-5e-05,-8.82,16
2707,0.000845,0.000757,-8.8e-05,-10.4,16
2708,0.00032,0.000292,-2.8e-05,-8.71,16
2709,0.00051,0.000449,-6.1e-05,-11.96,16
2710,0.000768,0.000737,-3.2e-05,-4.12,16
2711,0.001042,0.001042,-0.0,-0.0,16
2712,0.000629,0.000607,-2.2e-05,-3.45,16
2713,0.000703,0.000673,-3e-05,-4.32,16
2714,0.000683,0.000621,-6.1e-05,-9.01,16
2715,0.000394,0.000423,3e-05,7.53,16
2716,0.00032,0.000294,-2.6e-05,-7.97,16
2717,0.000838,0.000826,-1.2e-05,-1.48,16
2718,0.000563,0.00059,2.8e-05,4.92,16
2719,0.000599,0.000572,-2.8e-05,-4.66,16
2720,0.000638,0.000628,-1e-05,-1.59,16
2721,0.000617,0.000607,-1e-05,-1.69,16
2722,0.000561,0.000544,-1.7e-05,-3.1,16
2723,0.000665,0.00066,-5e-06,-0.77,16
2724,0.000598,0.000606,8e-06,1.26,16
2725,0.000659,0.000661,2e-06,0.27,16
2726,0.000735,0.000752,1.7e-05,2.31,16
2727,0.000562,0.000543,-1.9e-05,-3.46,16
2728,0.000755,0.000746,-9e-06,-1.23,16
2729,0.000534,0.000561,2.7e-05,5.14,16
2730,0.000451,0.000414,-3.8e-05,-8.33,16
2731,0.000833,0.000809,-2.4e-05,-2.9,16
2732,0.000545,0.000495,-5e-05,-9.23,16
2733,0.000715,0.000705,-1e-05,-1.45,16
2734,0.000563,0.000594,3.2e-05,5.62,16
2735,0.000646,0.000669,2.3e-05,3.57,16
2736,0.000938,0.000898,-4e-05,-4.29,16
2737,0.000632,0.000598,-3.3e-05,-5.28,16
2738,0.000466,0.000434,-3.2e-05,-6.78,16
2739,0.000864,0.000836,-2.8e-05,-3.29,16
2740,0.000692,0.000685,-7e-06,-0.94,16
2741,0.000535,0.000522,-1.3e-05,-2.46,16
2742,0.000734,0.000722,-1.2e-05,-1.62,16
2743,0.000593,0.000587,-6e-06,-0.96,16
2744,0.000554,0.000494,-6e-05,-10.85,16
2745,0.000492,0.000474,-1.8e-05,-3.71,16
2746,0.000785,0.000798,1.4e-05,1.72,16
2747,0.000394,0.000428,3.4e-05,8.74,16
2748,0.000692,0.000686,-6e-06,-0.89,16
2749,0.000659,0.000657,-3e-06,-0.42,16
2750,0.000634,0.000615,-1.9e-05,-3.06,16
2751,0.000593,0.000584,-9e-06,-1.48,16
2752,0.000554,0.000494,-6e-05,-10.85,16
2753,0.000518,0.00052,2e-06,0.31,16
2754,0.000561,0.000548,-1.3e-05,-2.38,16
2755,0.000553,0.000548,-5e-06,-0.98,16
2756,0.000838,0.000815,-2.3e-05,-2.75,16
2757,0.000831,0.000749,-8.2e-05,-9.88,16
2758,0.000563,0.000596,3.3e-05,5.86,16
2759,0.000599,0.000573,-2.6e-05,-4.34,16
2760,0.000734,0.000674,-6.1e-05,-8.25,16
2761,0.000548,0.000533,-1.5e-05,-2.67,16
2762,0.000683,0.000639,-4.4e-05,-6.45,16
2763,0.000447,0.000473,2.6e-05,5.82,16
2764,0.000806,0.000819,1.3e-05,1.61,16
2765,0.000715,0.000702,-1.3e-05,-1.85,16
2766,0.000588,0.000568,-2e-05,-3.42,16
2767,0.000734,0.000765,3.1e-05,4.19,16
2768,0.000546,0.000478,-6.8e-05,-12.45,16
2769,0.000632,0.000598,-3.4e-05,-5.4,16
2770,0.000859,0.000897,3.8e-05,4.47,16
2771,0.000845,0.000764,-8.1e-05,-9.56,16
2772,0.000838,0.000815,-2.3e-05,-2.72,16
2773,0.000694,0.000749,5.6e-05,8.03,16
2774,0.000578,0.00059,1.2e-05,2.12,16
2775,0.000593,0.000584,-9e-06,-1.47,16
2776,0.000938,0.000902,-3.7e-05,-3.89,16
2777,0.000548,0.000535,-1.3e-05,-2.33,16
2778,0.000997,0.001,3e-06,0.28,16
2779,0.001014,0.000998,-1.6e-05,-1.54,16
2780,0.000541,0.000462,-8e-05,-14.69,16
2781,0.000832,0.000862,3e-05,3.55,16
2782,0.000805,0.000785,-1.9e-05,-2.39,16
2783,0.000599,0.000581,-1.9e-05,-3.11,16
2784,0.000553,0.000573,1.9e-05,3.49,16
2785,0.000787,0.000721,-6.6e-05,-8.39,16
2786,0.000997,0.001006,9e-06,0.86,16
2787,0.000394,0.000436,4.2e-05,10.75,16
2788,0.000692,0.000685,-7e-06,-0.99,16
2789,0.000535,0.000519,-1.6e-05,-3.03,16
2790,0.000563,0.000599,3.6e-05,6.38,16
2791,0.000574,0.000592,1.7e-05,3.0,16
2792,0.000764,0.000744,-2e-05,-2.65,16
2793,0.000821,0.000738,-8.3e-05,-10.07,16
2794,0.000749,0.000721,-2.8e-05,-3.69,16
2795,0.00066,0.000627,-3.3e-05,-5.05,16
2796,0.00061,0.000587,-2.4e-05,-3.89,16
2797,0.00051,0.000455,-5.5e-05,-10.8,16
2798,0.000622,0.000638,1.6e-05,2.57,16
2799,0.00066,0.000717,5.7e-05,8.63,16
2800,0.000638,0.000632,-6e-06,-0.9,16
2801,0.000617,0.000607,-1e-05,-1.59,16
2802,0.000683,0.000644,-3.9e-05,-5.64,16
2803,0.000553,0.00055,-3e-06,-0.47,16
2804,0.000616,0.000585,-3.1e-05,-4.98,16
2805,0.000783,0.00075,-3.3e-05,-4.16,16
2806,0.000802,0.000791,-1.2e-05,-1.45,16
2807,0.000646,0.00067,2.4e-05,3.73,16
2808,0.00089,0.000849,-4.1e-05,-4.56,16
2809,0.000548,0.000539,-9e-06,-1.64,16
2810,0.000629,0.000588,-4.1e-05,-6.58,16
2811,0.000782,0.000791,8e-06,1.08,16
2812,0.00061,0.000587,-2.3e-05,-3.76,16
2813,0.000832,0.000857,2.5e-05,2.94,16
2814,0.000622,0.000635,1.3e-05,2.01,16
2815,0.00066,0.000719,5.9e-05,8.99,16
2816,0.000553,0.000574,2.1e-05,3.73,16
2817,0.000548,0.00054,-7e-06,-1.36,16
2818,0.000785,0.000793,8e-06,1.01,16
2819,0.000394,0.000441,4.8e-05,12.1,16
2820,0.000616,0.000585,-3.1e-05,-5.05,16
2821,0.000535,0.000519,-1.6e-05,-2.95,16
2822,0.000588,0.000565,-2.4e-05,-4.03,16
2823,0.000646,0.00067,2.4e-05,3.72,16
2824,0.000546,0.000489,-5.7e-05,-10.41,16
2825,0.000787,0.000723,-6.4e-05,-8.15,16
2826,0.000859,0.000901,4.2e-05,4.9,16
2827,0.000845,0.000771,-7.4e-05,-8.73,16
2828,0.000701,0.000692,-1e-05,-1.38,16
2829,0.000637,0.000621,-1.6e-05,-2.49,16
2830,0.000735,0.000752,1.7e-05,2.27,16
2831,0.000562,0.000536,-2.6e-05,-4.65,16
2832,0.000524,0.000526,2e-06,0.39,16
2833,0.000534,0.000566,3.2e-05,6.08,16
2834,0.000629,0.000591,-3.9e-05,-6.15,16
2835,0.000898,0.000887,-1e-05,-1.13,16
2836,0.00032,0.000301,-1.9e-05,-5.86,16
2837,0.000831,0.000749,-8.2e-05,-9.82,16
2838,0.000707,0.000702,-6e-06,-0.79,16
2839,0.000631,0.000656,2.5e-05,3.99,16
2840,0.000629,0.000609,-2e-05,-3.18,16
2841,0.000534,0.000566,3.3e-05,6.11,16
2842,0.000564,0.000516,-4.8e-05,-8.57,16
2843,0.000394,0.000446,5.3e-05,13.34,16
2844,0.000692,0.000683,-9e-06,-1.33,16
2845,0.000659,0.000651,-8e-06,-1.28,16
2846,0.000734,0.000738,3e-06,0.47,16
2847,0.000574,0.000595,2.1e-05,3.63,16
2848,0.000764,0.000752,-1.2e-05,-1.55,16
2849,0.000492,0.000479,-1.3e-05,-2.64,16
2850,0.000473,0.000441,-3.2e-05,-6.84,16
2851,0.000758,0.000714,-4.4e-05,-5.79,16
2852,0.000545,0.000511,-3.3e-05,-6.11,16
2853,0.000715,0.000703,-1.2e-05,-1.71,16
2854,0.000768,0.000751,-1.7e-05,-2.26,16
2855,0.001042,0.001056,1.4e-05,1.35,16
2856,0.000546,0.000492,-5.4e-05,-9.86,16
2857,0.000492,0.000481,-1.2e-05,-2.41,16
2858,0.000629,0.000593,-3.6e-05,-5.79,16
2859,0.000758,0.000716,-4.1e-05,-5.45,16
2860,0.000713,0.000671,-4.3e-05,-5.97,16
2861,0.000659,0.000648,-1.1e-05,-1.66,16
2862,0.000805,0.000785,-2e-05,-2.44,16
2863,0.000807,0.000779,-2.7e-05,-3.4,16
2864,0.000764,0.000759,-5e-06,-0.61,16
2865,0.000632,0.000591,-4.1e-05,-6.48,16
2866,0.000466,0.000437,-2.9e-05,-6.19,16
2867,0.000864,0.000838,-2.6e-05,-3.05,16
2868,0.000692,0.000685,-7e-06,-1.06,16
2869,0.00051,0.000458,-5.1e-05,-10.09,16
2870,0.000622,0.000633,1.1e-05,1.82,16
2871,0.00066,0.000723,6.3e-05,9.53,16
2872,0.000554,0.000496,-5.8e-05,-10.5,16
2873,0.000667,0.000669,1e-06,0.19,16
2874,0.000473,0.000443,-3e-05,-6.36,16
2875,0.000394,0.000448,5.5e-05,13.93,16
2876,0.000616,0.000585,-3.1e-05,-5.05,16
2877,0.000637,0.000624,-1.3e-05,-1.97,16
2878,0.000734,0.000742,8e-06,1.03,16
2879,0.000574,0.000596,2.2e-05,3.85,16
2880,0.000638,0.000634,-4e-06,-0.66,16
2881,0.000632,0.000591,-4e-05,-6.38,16
2882,0.000631,0.000655,2.4e-05,3.79,16
2883,0.000665,0.000668,3e-06,0.42,16
2884,0.000713,0.000679,-3.4e-05,-4.8,16
2885,0.000831,0.00076,-7.1e-05,-8.55,16
2886,0.000734,0.000743,9e-06,1.21,16
2887,0.000646,0.000669,2.3e-05,3.53,16
2888,0.000755,0.000746,-9e-06,-1.22,16
2889,0.000632,0.000592,-4e-05,-6.31,16
2890,0.000564,0.000516,-4.9e-05,-8.65,16
2891,0.000782,0.000806,2.4e-05,3.02,16
2892,0.000526,0.000547,2e-05,3.86,16
2893,0.000637,0.000625,-1.2e-05,-1.87,16
2894,0.000734,0.000744,1e-05,1.34,16
2895,0.000562,0.000535,-2.7e-05,-4.83,16
2896,0.000638,0.000634,-4e-06,-0.59,16
2897,0.000632,0.000593,-3.9e-05,-6.19,16
2898,0.000466,0.000435,-3e-05,-6.51,16
2899,0.000665,0.000669,4e-06,0.64,16
2900,0.00061,0.000587,-2.3e-05,-3.82,16
2901,0.00051,0.000458,-5.2e-05,-10.14,16
2902,0.000634,0.000618,-1.6e-05,-2.51,16
2903,0.000973,0.000986,1.3e-05,1.31,16
2904,0.000524,0.000531,7e-06,1.28,16
2905,0.000821,0.000747,-7.4e-05,-9.06,16
2906,0.000631,0.000659,2.7e-05,4.3,16
2907,0.000394,0.000451,5.8e-05,14.62,16
2908,0.00032,0.000304,-1.6e-05,-5.12,16
2909,0.000715,0.000702,-1.4e-05,-1.94,16
2910,0.000707,0.000714,6e-06,0.9,16
2911,0.000562,0.000535,-2.7e-05,-4.78,16
2912,0.000553,0.000573,2e-05,3.54,16
2913,0.000667,0.000675,8e-06,1.16,16
2914,0.000683,0.000656,-2.7e-05,-3.95,16
2915,0.000845,0.000777,-6.7e-05,-7.98,16
2916,0.000838,0.000818,-2e-05,-2.34,16
2917,0.000832,0.000848,1.5e-05,1.86,16
2918,0.000735,0.000749,1.4e-05,1.86,16
2919,0.000848,0.000852,4e-06,0.49,16
2920,0.000734,0.000678,-5.7e-05,-7.71,16
2921,0.000703,0.000674,-2.9e-05,-4.16,16
2922,0.000859,0.000907,4.9e-05,5.67,16
2923,0.000394,0.000452,5.9e-05,14.91,16
2924,0.000806,0.000824,1.7e-05,2.14,16
2925,0.000535,0.00051,-2.5e-05,-4.72,16
2926,0.000588,0.000562,-2.6e-05,-4.5,16
2927,0.000807,0.000788,-1.8e-05,-2.29,16
2928,0.00089,0.000851,-3.9e-05,-4.34,16
2929,0.000787,0.000726,-6.1e-05,-7.72,16
2930,0.000631,0.000661,2.9e-05,4.67,16
2931,0.000394,0.000453,6e-05,15.12,16
2932,0.000713,0.000686,-2.7e-05,-3.78,16
2933,0.000694,0.000751,5.7e-05,8.25,16
2934,0.00078,0.00077,-1e-05,-1.22,16
2935,0.000562,0.000535,-2.8e-05,-4.9,16
2936,0.000629,0.000608,-2.1e-05,-3.35,16
2937,0.000492,0.000488,-4e-06,-0.9,16
2938,0.000631,0.000663,3.2e-05,5.05,16
2939,0.00066,0.000626,-3.4e-05,-5.1,16
2940,0.000598,0.00061,1.2e-05,2.03,16
2941,0.000783,0.000755,-2.7e-05,-3.49,16
2942,0.000802,0.000808,6e-06,0.76,16
2943,0.001042,0.00106,1.8e-05,1.7,16
2944,0.000554,0.000496,-5.9e-05,-10.56,16
2945,0.000534,0.000566,3.2e-05,6.02,16
2946,0.000466,0.000435,-3.1e-05,-6.66,16
2947,0.00066,0.000626,-3.4e-05,-5.14,16
2948,0.000692,0.000685,-7e-06,-1.05,16
2949,0.000637,0.000628,-9e-06,-1.35,16
2950,0.000634,0.00062,-1.4e-05,-2.22,16
2951,0.000599,0.000589,-1e-05,-1.75,16
2952,0.000546,0.000493,-5.3e-05,-9.72,16
2953,0.000717,0.000673,-4.3e-05,-6.07,16
2954,0.000997,0.001024,2.7e-05,2.67,16
2955,0.000833,0.000831,-3e-06,-0.31,16
2956,0.000616,0.000585,-3e-05,-4.94,16
2957,0.00051,0.000459,-5.1e-05,-9.96,16
2958,0.000707,0.000715,8e-06,1.07,16
2959,0.00066,0.000724,6.4e-05,9.77,16
2960,0.000554,0.000496,-5.9e-05,-10.6,16
2961,0.000667,0.000679,1.1e-05,1.69,16
2962,0.000561,0.000559,-3e-06,-0.51,16
2963,0.000447,0.000476,2.9e-05,6.44,16
2964,0.000701,0.000696,-6e-06,-0.84,16
2965,0.000807,0.000801,-6e-06,-0.74,16
2966,0.00078,0.000772,-8e-06,-1.06,16
2967,0.000646,0.000669,2.3e-05,3.6,16
2968,0.00089,0.000852,-3.8e-05,-4.28,16
2969,0.000755,0.000735,-2e-05,-2.6,16
2970,0.000473,0.000448,-2.5e-05,-5.23,16
2971,0.000394,0.000455,6.1e-05,15.45,16
2972,0.000526,0.000549,2.2e-05,4.22,16
2973,0.000829,0.000817,-1.2e-05,-1.47,16
2974,0.000707,0.000716,9e-06,1.25,16
2975,0.000574,0.000602,2.7e-05,4.79,16
2976,0.000764,0.000763,-1e-06,-0.13,16
2977,0.000699,0.000674,-2.4e-05,-3.48,16
2978,0.000564,0.000521,-4.4e-05,-7.76,16
2979,0.000898,0.000898,0.0,0.04,16
2980,0.000713,0.000692,-2.1e-05,-2.99,16
2981,0.000838,0.000843,5e-06,0.6,16
2982,0.000563,0.000611,4.8e-05,8.59,16
2983,0.000807,0.000791,-1.6e-05,-1.98,16
2984,0.000638,0.000636,-2e-06,-0.27,16
2985,0.000667,0.000679,1.2e-05,1.77,16
2986,0.000466,0.000435,-3e-05,-6.51,16
2987,0.001014,0.001007,-7e-06,-0.66,16
2988,0.000713,0.000692,-2.1e-05,-2.92,16
2989,0.000694,0.000756,6.2e-05,8.96,16
2990,0.000768,0.000764,-4e-06,-0.51,16
2991,0.000734,0.000779,4.4e-05,6.05,16
2992,0.000755,0.000749,-7e-06,-0.89,16
2993,0.000755,0.000736,-1.9e-05,-2.48,16
2994,0.000683,0.000662,-2.1e-05,-3.07,16
2995,0.000758,0.000715,-4.2e-05,-5.59,16
2996,0.000713,0.000692,-2.1e-05,-2.92,16
2997,0.000637,0.000629,-7e-06,-1.17,16
2998,0.000578,0.000605,2.7e-05,4.69,16
2999,0.000646,0.000668,2.2e-05,3.35,16
