kernel_id,importance_mean,importance_std,dilation
0,9e-05,7e-06,1
1,8.3e-05,9e-06,1
2,7.6e-05,8e-06,1
3,0.000117,5e-06,1
4,0.000101,7e-06,1
5,0.00012,1e-06,1
6,9.4e-05,0.0,1
7,0.000117,1.6e-05,1
8,8.8e-05,1e-06,1
9,7.2e-05,2e-06,1
10,7.2e-05,4e-06,1
11,0.000117,4e-06,1
12,9.6e-05,3e-06,1
13,0.000105,1.7e-05,1
14,0.00015,1.4e-05,1
15,0.000213,1.7e-05,1
16,7.3e-05,5e-06,1
17,9.5e-05,1.5e-05,1
18,7.3e-05,6e-06,1
19,0.000113,1.2e-05,1
20,9.2e-05,3e-06,1
21,0.0001,1.4e-05,1
22,0.000146,7e-06,1
23,0.000138,1.8e-05,1
24,8.3e-05,1e-05,1
25,6.2e-05,7e-06,1
26,8.5e-05,1.4e-05,1
27,0.000124,2.2e-05,1
28,8.1e-05,2e-06,1
29,0.00014,8e-06,1
30,0.000122,1.6e-05,1
31,0.000148,7e-06,1
32,7.6e-05,3e-06,1
33,7.1e-05,1e-06,1
34,7.5e-05,2e-06,1
35,8.7e-05,1e-06,1
36,9e-05,6e-06,1
37,0.000127,1e-05,1
38,0.000108,3e-06,1
39,0.000125,5e-06,1
40,8.7e-05,2e-06,1
41,6.9e-05,0.0,1
42,9.3e-05,1.2e-05,1
43,0.000102,9e-06,1
44,9.2e-05,2e-06,1
45,0.000105,6e-06,1
46,0.000128,2e-06,1
47,0.000208,1e-06,1
48,7.3e-05,4e-06,1
49,8.3e-05,3e-06,1
50,8.7e-05,7e-06,1
51,9.9e-05,9e-06,1
52,9.3e-05,0.0,1
53,0.000128,8e-06,1
54,0.000119,1e-06,1
55,0.000157,1e-05,1
56,7.6e-05,3e-06,1
57,9.2e-05,7e-06,1
58,7e-05,4e-06,1
59,0.000127,5e-06,1
60,7.6e-05,1e-06,1
61,0.000128,7e-06,1
62,0.000133,1.3e-05,1
63,0.000175,5e-06,1
64,7.7e-05,1e-06,1
65,9.7e-05,2e-06,1
66,7.9e-05,1.3e-05,1
67,9.2e-05,1e-05,1
68,7.7e-05,0.0,1
69,0.000117,4e-06,1
70,0.000155,7e-06,1
71,0.000163,1.2e-05,1
72,6.8e-05,6e-06,1
73,6.9e-05,1.3e-05,1
74,7.9e-05,4e-06,1
75,8.9e-05,0.0,1
76,7.7e-05,1e-06,1
77,0.000143,1e-06,1
78,0.000123,3e-06,1
79,0.000169,7e-06,1
80,7.4e-05,2e-06,1
81,8.5e-05,7e-06,1
82,8.7e-05,2e-06,1
83,9.9e-05,4e-06,1
84,9.1e-05,4e-06,1
85,0.000124,1e-06,1
86,0.000133,1.1e-05,1
87,0.000172,2.2e-05,1
88,7.6e-05,6e-06,1
89,6e-05,5e-06,1
90,8.6e-05,3e-06,1
91,9e-05,4e-06,1
92,9.1e-05,4e-06,1
93,8.9e-05,3e-06,1
94,0.000136,5e-06,1
95,0.000136,4e-06,1
96,7.2e-05,3e-06,1
97,8.3e-05,8e-06,1
98,9.7e-05,1.3e-05,1
99,8.8e-05,1.5e-05,1
100,9.4e-05,1e-06,1
101,0.000122,1e-06,1
102,0.000137,3e-06,1
103,0.000232,1.9e-05,1
104,7.1e-05,4e-06,1
105,8.3e-05,7e-06,1
106,9.5e-05,5e-06,1
107,0.000118,1.2e-05,1
108,0.000102,5e-06,1
109,0.000106,3e-06,1
110,8.4e-05,8e-06,1
111,0.000239,1.8e-05,1
112,7.2e-05,8e-06,1
113,7.9e-05,2e-06,1
114,7.6e-05,1.2e-05,1
115,0.000101,4e-06,1
116,9e-05,1e-06,1
117,8.9e-05,3e-06,1
118,0.000127,3e-06,1
119,0.000173,5e-06,1
120,7.6e-05,2e-06,1
121,8.2e-05,6e-06,1
122,9.2e-05,7e-06,1
123,0.00012,1.2e-05,1
124,9.1e-05,4e-06,1
125,0.000126,3e-06,1
126,0.000124,4e-06,1
127,0.000134,2.3e-05,1
128,8.7e-05,1e-06,1
129,8.2e-05,2e-06,1
130,9.4e-05,5e-06,1
131,8.7e-05,5e-06,1
132,8.5e-05,1.7e-05,1
133,0.000127,3e-06,1
134,0.000157,5e-06,1
135,0.000193,9e-06,1
136,8.2e-05,6e-06,1
137,7.9e-05,3e-06,1
138,7.6e-05,1.3e-05,1
139,0.000106,7e-06,1
140,8.9e-05,1e-06,1
141,0.000108,2e-06,1
142,9.5e-05,9e-06,1
143,0.000221,1e-06,1
144,8.1e-05,1e-06,1
145,8.2e-05,2e-06,1
146,9.1e-05,6e-06,1
147,0.000102,3e-06,1
148,9.4e-05,1e-06,1
149,8.9e-05,3e-06,1
150,0.000117,6e-06,1
151,0.000142,4e-06,1
152,7.4e-05,8e-06,1
153,8.1e-05,1e-06,1
154,7.6e-05,1.3e-05,1
155,9.8e-05,3e-06,1
156,7.7e-05,1e-06,1
157,0.000114,0.0,1
158,0.000128,3e-06,1
159,0.000178,4e-06,1
160,8.4e-05,5e-06,1
161,7e-05,2e-06,1
162,9.1e-05,6e-06,1
163,0.000103,2e-06,1
164,8.6e-05,1.6e-05,1
165,0.000141,2e-06,1
166,0.000135,9e-06,1
167,0.000151,1.4e-05,1
168,8.2e-05,0.0,1
169,7.9e-05,9e-06,1
170,6.7e-05,3e-06,1
171,0.000115,2e-06,1
172,9e-05,7e-06,1
173,0.000128,3e-06,1
174,0.000135,9e-06,1
175,0.000146,3e-06,1
176,7.9e-05,2e-06,1
177,7.9e-05,4e-06,1
178,8.7e-05,4e-06,1
179,0.000112,2e-06,1
180,9e-05,6e-06,1
181,0.000128,1e-05,1
182,0.000128,3e-06,1
183,0.000144,2.1e-05,1
184,7.1e-05,5e-06,1
185,8e-05,1e-05,1
186,8e-05,1e-06,1
187,0.00012,1.2e-05,1
188,7.7e-05,2e-06,1
189,0.000128,9e-06,1
190,0.000114,5e-06,1
191,0.00018,4e-06,1
192,8.4e-05,7e-06,1
193,9.9e-05,4e-06,1
194,8e-05,1e-06,1
195,0.00012,1.1e-05,1
196,8.9e-05,2e-06,1
197,8e-05,1.1e-05,1
198,0.000115,5e-06,1
199,0.000178,3e-06,1
200,6.8e-05,5e-06,1
201,9.9e-05,3e-06,1
202,8e-05,1e-06,1
203,0.000117,3e-06,1
204,9.1e-05,4e-06,1
205,0.000128,9e-06,1
206,0.000117,0.0,1
207,0.000148,1.9e-05,1
208,7.1e-05,5e-06,1
209,9.5e-05,1e-06,1
210,7.4e-05,1e-06,1
211,0.000127,1.8e-05,1
212,9.7e-05,1e-05,1
213,0.000116,5e-06,1
214,0.000116,5e-06,1
215,0.00015,1.7e-05,1
216,7.1e-05,7e-06,1
217,7e-05,4e-06,1
218,9.4e-05,5e-06,1
219,8.6e-05,1.8e-05,1
220,0.000106,6e-06,1
221,7.9e-05,1.2e-05,1
222,0.000126,4e-06,1
223,0.000154,1.2e-05,1
224,6.8e-05,5e-06,1
225,7e-05,1.2e-05,1
226,9.1e-05,6e-06,1
227,8.6e-05,3e-06,1
228,7.1e-05,1.3e-05,1
229,7.9e-05,1.3e-05,1
230,0.000116,4e-06,1
231,0.000155,1.1e-05,1
232,7.1e-05,7e-06,1
233,8.2e-05,6e-06,1
234,8.6e-05,5e-06,1
235,0.000118,4e-06,1
236,9.8e-05,1e-05,1
237,9.7e-05,5e-06,1
238,0.000129,2e-06,1
239,0.000255,1e-05,1
240,7.7e-05,8e-06,1
241,7.9e-05,4e-06,1
242,7.7e-05,1.4e-05,1
243,0.000118,4e-06,1
244,9.1e-05,4e-06,1
245,0.000114,2e-06,1
246,0.00012,0.0,1
247,0.000156,1e-05,1
248,8.4e-05,7e-06,1
249,7.1e-05,1.1e-05,1
250,8.1e-05,1e-06,1
251,8.6e-05,1.9e-05,1
252,9.5e-05,2e-06,1
253,0.000128,3e-06,1
254,0.00018,1e-06,1
255,0.000203,8e-06,1
256,7.4e-05,8e-06,1
257,6.8e-05,4e-06,1
258,8.7e-05,2e-06,1
259,0.000104,0.0,1
260,7.7e-05,2e-06,1
261,0.000108,2e-06,1
262,0.000117,6e-06,1
263,0.000161,2e-06,1
264,7.5e-05,9e-06,1
265,6.8e-05,3e-06,1
266,9.1e-05,5e-06,1
267,9.7e-05,1e-06,1
268,9.5e-05,2e-06,1
269,7.8e-05,1.3e-05,1
270,0.000157,5e-06,1
271,0.000181,4e-06,1
272,6.9e-05,7e-06,1
273,0.0001,3e-06,1
274,7.7e-05,1.4e-05,1
275,0.000104,0.0,1
276,9.2e-05,5e-06,1
277,0.000128,9e-06,1
278,0.000136,1e-06,1
279,0.000157,1e-05,1
280,8.6e-05,0.0,1
281,9.4e-05,0.0,1
282,8.2e-05,1.3e-05,1
283,0.000112,2e-06,1
284,9.2e-05,4e-06,1
285,8.9e-05,4e-06,1
286,0.000137,1e-06,1
287,0.000171,5e-06,1
288,6.8e-05,4e-06,1
289,7.1e-05,5e-06,1
290,8.6e-05,3e-06,1
291,8.5e-05,2e-05,1
292,9.2e-05,4e-06,1
293,0.000115,3e-06,1
294,0.000146,4e-06,1
295,0.000294,8e-06,1
296,8.7e-05,1e-06,1
297,8.2e-05,9e-06,1
298,9.8e-05,9e-06,1
299,0.000106,5e-06,1
300,8.7e-05,1.5e-05,1
301,0.000108,2e-06,1
302,0.000122,1e-06,1
303,0.000244,1.7e-05,1
304,8.4e-05,7e-06,1
305,0.0001,3e-06,1
306,7.7e-05,1.5e-05,1
307,0.000117,1.1e-05,1
308,7.7e-05,3e-06,1
309,0.000137,6e-06,1
310,0.000101,9e-06,1
311,0.000247,1.6e-05,1
312,7.7e-05,1e-06,1
313,7.1e-05,1.1e-05,1
314,9.5e-05,5e-06,1
315,9.7e-05,0.0,1
316,8.7e-05,1.4e-05,1
317,0.000128,9e-06,1
318,0.000117,5e-06,1
319,0.000174,2.1e-05,1
320,7e-05,7e-06,1
321,8.6e-05,7e-06,1
322,8.6e-05,4e-06,1
323,0.000119,4e-06,1
324,8.7e-05,1.4e-05,1
325,0.000128,9e-06,1
326,0.000123,1e-06,1
327,0.000153,1.7e-05,1
328,7.6e-05,1e-06,1
329,7.3e-05,6e-06,1
330,6.6e-05,3e-06,1
331,9.6e-05,0.0,1
332,9.1e-05,5e-06,1
333,0.000112,6e-06,1
334,0.000129,3e-06,1
335,0.000165,1e-06,1
336,7.1e-05,7e-06,1
337,7.4e-05,7e-06,1
338,8.8e-05,3e-06,1
339,0.000104,0.0,1
340,8.7e-05,1.4e-05,1
341,0.000142,6e-06,1
342,0.00013,3e-06,1
343,0.000206,8e-06,1
344,8.5e-05,7e-06,1
345,7.2e-05,1.1e-05,1
346,8.2e-05,1.2e-05,1
347,0.000118,5e-06,1
348,9e-05,4e-06,1
349,0.000138,6e-06,1
350,0.000187,3e-06,1
351,0.000158,9e-06,1
352,7.1e-05,6e-06,1
353,7.5e-05,7e-06,1
354,8.8e-05,3e-06,1
355,8.5e-05,2e-05,1
356,8.8e-05,2e-06,1
357,0.000129,4e-06,1
358,0.000117,5e-06,1
359,0.000175,3e-06,1
360,7.5e-05,7e-06,1
361,7.5e-05,8e-06,1
362,7.7e-05,1.5e-05,1
363,0.00013,2e-05,1
364,9.3e-05,3e-06,1
365,0.000115,4e-06,1
366,0.000152,1e-05,1
367,0.000168,1e-06,1
368,6.8e-05,4e-06,1
369,8.2e-05,9e-06,1
370,6.6e-05,4e-06,1
371,0.000117,1e-05,1
372,7.1e-05,1.3e-05,1
373,0.000115,5e-06,1
374,0.000117,5e-06,1
375,0.000148,2e-06,1
376,7.1e-05,8e-06,1
377,6.6e-05,3e-06,1
378,6.6e-05,4e-06,1
379,0.000112,1e-06,1
380,7.1e-05,1.4e-05,1
381,0.000108,1e-06,1
382,0.000127,4e-06,1
383,0.000176,2e-05,1
384,8.4e-05,3e-06,1
385,7.2e-05,1.1e-05,1
386,8.7e-05,5e-06,1
387,0.000106,4e-06,1
388,9e-05,4e-06,1
389,0.000112,5e-06,1
390,0.000127,4e-06,1
391,0.000208,7e-06,1
392,8.7e-05,1e-06,1
393,8.5e-05,7e-06,1
394,8.1e-05,1e-06,1
395,9e-05,4e-06,1
396,9.2e-05,4e-06,1
397,8.8e-05,4e-06,1
398,0.000102,1e-05,1
399,0.000248,1.5e-05,1
400,7.1e-05,8e-06,1
401,8.2e-05,8e-06,1
402,8.2e-05,1e-06,1
403,0.000118,5e-06,1
404,9.8e-05,1e-05,1
405,8.9e-05,4e-06,1
406,0.00013,3e-06,1
407,0.000179,1e-06,1
408,7.5e-05,8e-06,1
409,8.5e-05,7e-06,1
410,9.8e-05,8e-06,1
411,0.000116,9e-06,1
412,9.3e-05,3e-06,1
413,8.9e-05,4e-06,1
414,0.00013,3e-06,1
415,0.000177,1.9e-05,1
416,7.5e-05,1e-06,1
417,6.6e-05,3e-06,1
418,7.7e-05,1.6e-05,1
419,0.000116,8e-06,1
420,9.4e-05,2e-06,1
421,0.000108,1e-06,1
422,0.00013,3e-06,1
423,0.000151,2e-06,1
424,7e-05,6e-06,1
425,8.5e-05,7e-06,1
426,9e-05,6e-06,1
427,0.000118,5e-06,1
428,8.8e-05,1.4e-05,1
429,0.000128,9e-06,1
430,0.000118,7e-06,1
431,0.000208,7e-06,1
432,8.5e-05,3e-06,1
433,9.4e-05,1e-06,1
434,8.3e-05,3e-06,1
435,8.5e-05,2.1e-05,1
436,7.6e-05,3e-06,1
437,8.9e-05,4e-06,1
438,0.000151,1e-05,1
439,0.000209,7e-06,1
440,8.7e-05,4e-06,1
441,8.3e-05,7e-06,1
442,6.6e-05,4e-06,1
443,8.5e-05,2.1e-05,1
444,9e-05,4e-06,1
445,0.000116,5e-06,1
446,0.000136,8e-06,1
447,0.000152,2e-06,1
448,6.7e-05,4e-06,1
449,6e-05,2e-06,1
450,9e-05,6e-06,1
451,9.6e-05,0.0,1
452,0.000108,1e-06,1
453,9.8e-05,6e-06,1
454,0.000118,5e-06,1
455,0.000182,5e-06,1
456,7.8e-05,8e-06,1
457,6.6e-05,3e-06,1
458,8.7e-05,4e-06,1
459,0.000131,2.1e-05,1
460,7.7e-05,6e-06,1
461,0.000108,1e-06,1
462,0.000103,1.1e-05,1
463,0.000249,1.5e-05,1
464,7.5e-05,8e-06,1
465,8.3e-05,6e-06,1
466,8.7e-05,5e-06,1
467,0.000112,1e-06,1
468,7.6e-05,6e-06,1
469,0.000116,5e-06,1
470,0.000118,7e-06,1
471,0.000228,5e-06,1
472,8.7e-05,0.0,1
473,8.3e-05,8e-06,1
474,8.8e-05,3e-06,1
475,8.6e-05,2e-06,1
476,7.1e-05,1.4e-05,1
477,8.9e-05,4e-06,1
478,0.000118,7e-06,1
479,0.000154,1.6e-05,1
480,7e-05,6e-06,1
481,7.1e-05,1.1e-05,1
482,9.8e-05,7e-06,1
483,0.000116,8e-06,1
484,8.8e-05,1e-06,1
485,7.8e-05,1.5e-05,1
486,0.00013,3e-06,1
487,0.000231,6e-06,1
488,8.5e-05,8e-06,1
489,8.1e-05,2e-06,1
490,8.2e-05,1.3e-05,1
491,0.000133,2.1e-05,1
492,7.6e-05,6e-06,1
493,0.000108,1e-06,1
494,0.000147,6e-06,1
495,0.000208,8e-06,1
496,7.9e-05,3e-06,1
497,8.2e-05,6e-06,1
498,6.6e-05,4e-06,1
499,8.5e-05,2.1e-05,1
500,7.7e-05,3e-06,1
501,0.000116,6e-06,1
502,0.000136,8e-06,1
503,0.000181,0.0,1
504,8.5e-05,4e-06,1
505,5.9e-05,2e-06,1
506,9e-05,6e-06,1
507,9.6e-05,1e-06,1
508,7.1e-05,1.4e-05,1
509,0.000116,6e-06,1
510,0.00013,3e-06,1
511,0.000181,1e-06,1
512,8.5e-05,4e-06,1
513,7.2e-05,1.1e-05,1
514,6.6e-05,3e-06,1
515,9.6e-05,1e-06,1
516,9.2e-05,4e-06,1
517,9.8e-05,7e-06,1
518,0.000119,8e-06,1
519,0.000181,2e-06,1
520,7.5e-05,8e-06,1
521,9.4e-05,1e-06,1
522,7.7e-05,1.6e-05,1
523,0.000116,7e-06,1
524,8.8e-05,2e-06,1
525,9.8e-05,7e-06,1
526,0.000157,5e-06,1
527,0.000182,5e-06,1
528,7.1e-05,6e-06,1
529,7.5e-05,8e-06,1
530,8.8e-05,3e-06,1
531,0.000104,1e-06,1
532,7.7e-05,3e-06,1
533,0.000112,4e-06,1
534,0.000136,7e-06,1
535,0.000159,9e-06,1
536,7.5e-05,8e-06,1
537,8.2e-05,6e-06,1
538,7.7e-05,1.6e-05,1
539,8.5e-05,2.1e-05,1
540,8.8e-05,1.3e-05,1
541,0.000138,7e-06,1
542,0.000148,6e-06,1
543,0.000154,1e-06,1
544,7.5e-05,8e-06,1
545,7.6e-05,8e-06,1
546,7.7e-05,1.6e-05,1
547,0.000115,7e-06,1
548,7.6e-05,6e-06,1
549,0.000138,7e-06,1
550,0.000136,7e-06,1
551,0.000155,1e-06,1
552,7.1e-05,6e-06,1
553,8e-05,4e-06,1
554,8.8e-05,3e-06,1
555,0.000106,3e-06,1
556,9.8e-05,1e-05,1
557,7.8e-05,1.5e-05,1
558,0.000119,8e-06,1
559,0.00025,1.4e-05,1
560,8.5e-05,4e-06,1
561,9.4e-05,1e-06,1
562,8.7e-05,6e-06,1
563,0.000126,2e-06,1
564,8.8e-05,1.3e-05,1
565,0.000128,8e-06,1
566,0.00013,3e-06,1
567,0.000177,2e-06,1
568,8.5e-05,4e-06,1
569,5.9e-05,2e-06,1
570,8.8e-05,3e-06,1
571,0.000105,1e-06,1
572,9.1e-05,4e-06,1
573,9.8e-05,7e-06,1
574,0.000138,2e-06,1
575,0.000233,7e-06,1
576,7.9e-05,3e-06,1
577,6.6e-05,3e-06,1
578,8.7e-05,6e-06,1
579,8.6e-05,2e-06,1
580,9.4e-05,3e-06,1
581,0.000112,4e-06,1
582,0.000118,5e-06,1
583,0.000155,1.6e-05,1
584,7.5e-05,8e-06,1
585,6.6e-05,2e-06,1
586,8.8e-05,4e-06,1
587,8.5e-05,2.2e-05,1
588,9.9e-05,9e-06,1
589,0.000112,4e-06,1
590,0.000131,3e-06,1
591,0.000234,7e-06,1
592,6.7e-05,4e-06,1
593,7.6e-05,8e-06,1
594,9e-05,6e-06,1
595,0.000112,0.0,1
596,9.5e-05,2e-06,1
597,0.000108,1e-06,1
598,0.000138,2e-06,1
599,0.000155,1.5e-05,1
600,8.1e-05,3e-06,2
601,8.4e-05,4e-06,2
602,7.2e-05,5e-06,2
603,9.6e-05,7e-06,2
604,9.6e-05,1e-06,2
605,8.1e-05,0.0,2
606,9.2e-05,5e-06,2
607,0.00012,5e-06,2
608,7.4e-05,5e-06,2
609,8.6e-05,1.3e-05,2
610,5.2e-05,0.0,2
611,0.000103,1e-06,2
612,8.4e-05,9e-06,2
613,8.8e-05,9e-06,2
614,9e-05,1.8e-05,2
615,0.000129,3e-06,2
616,5.6e-05,4e-06,2
617,6.4e-05,1.7e-05,2
618,6.4e-05,5e-06,2
619,0.000121,0.0,2
620,6.3e-05,5e-06,2
621,7.6e-05,1e-06,2
622,0.000124,2e-06,2
623,0.000134,2e-06,2
624,8e-05,8e-06,2
625,6.5e-05,1e-06,2
626,8.2e-05,3e-06,2
627,0.000126,1e-06,2
628,7.7e-05,3e-06,2
629,8.9e-05,0.0,2
630,0.000114,1.1e-05,2
631,0.000168,1.9e-05,2
632,9.6e-05,7e-06,2
633,6.6e-05,1.5e-05,2
634,6.2e-05,1e-06,2
635,7.5e-05,2e-06,2
636,0.000105,1e-05,2
637,8.3e-05,0.0,2
638,0.000113,1.1e-05,2
639,0.0003,3e-06,2
640,8e-05,9e-06,2
641,9.5e-05,6e-06,2
642,7.3e-05,1.2e-05,2
643,0.000115,4e-06,2
644,0.000102,9e-06,2
645,9.7e-05,0.0,2
646,8.9e-05,1.6e-05,2
647,0.000121,8e-06,2
648,6.3e-05,4e-06,2
649,5.8e-05,0.0,2
650,6.4e-05,1e-06,2
651,7.4e-05,2e-06,2
652,8.6e-05,1.5e-05,2
653,8.2e-05,1.3e-05,2
654,0.000234,0.0,2
655,0.000117,4e-06,2
656,8e-05,1e-06,2
657,6.3e-05,2e-06,2
658,6.8e-05,7e-06,2
659,9.8e-05,8e-06,2
660,6.4e-05,4e-06,2
661,9.9e-05,3e-06,2
662,9.7e-05,6e-06,2
663,0.00014,3e-06,2
664,9.7e-05,9e-06,2
665,6.9e-05,4e-06,2
666,6e-05,0.0,2
667,0.000116,5e-06,2
668,8.7e-05,8e-06,2
669,7.9e-05,5e-06,2
670,0.000101,6e-06,2
671,0.000114,1.4e-05,2
672,5.9e-05,3e-06,2
673,8.2e-05,1.2e-05,2
674,6.3e-05,2e-06,2
675,0.0001,0.0,2
676,0.000113,6e-06,2
677,0.0001,1e-06,2
678,0.000105,8e-06,2
679,0.000116,1e-05,2
680,5.9e-05,5e-06,2
681,5.9e-05,4e-06,2
682,6.9e-05,2e-06,2
683,9.5e-05,3e-06,2
684,9.8e-05,8e-06,2
685,7.9e-05,5e-06,2
686,8.7e-05,1.3e-05,2
687,0.000166,1.1e-05,2
688,6.8e-05,2e-06,2
689,5.4e-05,1e-06,2
690,4.8e-05,1e-06,2
691,8.3e-05,8e-06,2
692,6.6e-05,9e-06,2
693,8.8e-05,2e-06,2
694,8.7e-05,1.1e-05,2
695,0.000127,9e-06,2
696,6.5e-05,2e-06,2
697,6.7e-05,0.0,2
698,4.6e-05,1e-06,2
699,0.000101,9e-06,2
700,0.000107,7e-06,2
701,9e-05,1.4e-05,2
702,0.000106,8e-06,2
703,0.000117,9e-06,2
704,7.2e-05,6e-06,2
705,7e-05,0.0,2
706,6.6e-05,5e-06,2
707,0.000189,6e-06,2
708,6.7e-05,7e-06,2
709,0.000101,1e-06,2
710,0.000102,1.4e-05,2
711,0.000121,6e-06,2
712,6e-05,3e-06,2
713,8.6e-05,0.0,2
714,7.2e-05,7e-06,2
715,9e-05,2e-06,2
716,8.5e-05,1.7e-05,2
717,6.5e-05,4e-06,2
718,9.9e-05,7e-06,2
719,0.000181,1.3e-05,2
720,6.5e-05,4e-06,2
721,7e-05,0.0,2
722,6.2e-05,3e-06,2
723,9.8e-05,1e-06,2
724,8.5e-05,1.7e-05,2
725,0.000149,1e-06,2
726,8.8e-05,1e-05,2
727,0.000135,4e-06,2
728,7e-05,8e-06,2
729,6.9e-05,0.0,2
730,6.9e-05,9e-06,2
731,0.000111,4e-06,2
732,6.8e-05,6e-06,2
733,0.000102,1e-06,2
734,0.000158,1.1e-05,2
735,0.000141,4e-06,2
736,8e-05,5e-06,2
737,8.3e-05,2e-06,2
738,8.3e-05,1e-06,2
739,0.00011,2e-06,2
740,9.6e-05,7e-06,2
741,7.6e-05,1e-06,2
742,0.00011,1e-05,2
743,0.00012,7e-06,2
744,8e-05,6e-06,2
745,6.2e-05,2e-06,2
746,7.2e-05,7e-06,2
747,8.7e-05,1e-06,2
748,0.000116,8e-06,2
749,9e-05,1.3e-05,2
750,9.9e-05,8e-06,2
751,0.000139,0.0,2
752,7.5e-05,6e-06,2
753,6.2e-05,4e-06,2
754,8.3e-05,2e-06,2
755,9.2e-05,5e-06,2
756,6.5e-05,4e-06,2
757,9.1e-05,1.3e-05,2
758,0.000111,1e-05,2
759,0.000124,3e-06,2
760,7.1e-05,4e-06,2
761,8.2e-05,1.2e-05,2
762,6.6e-05,2e-06,2
763,7.9e-05,0.0,2
764,9.6e-05,7e-06,2
765,7.7e-05,9e-06,2
766,0.000246,9e-06,2
767,0.000185,1.1e-05,2
768,5.8e-05,5e-06,2
769,6.6e-05,0.0,2
770,4.5e-05,2e-06,2
771,0.000103,8e-06,2
772,7.8e-05,0.0,2
773,7.6e-05,9e-06,2
774,9.9e-05,8e-06,2
775,0.000352,1.6e-05,2
776,7e-05,3e-06,2
777,6.9e-05,1.1e-05,2
778,7.1e-05,7e-06,2
779,0.000103,8e-06,2
780,0.000117,9e-06,2
781,0.000152,1e-06,2
782,9.9e-05,9e-06,2
783,0.000129,1.1e-05,2
784,7.1e-05,3e-06,2
785,8e-05,1.1e-05,2
786,6.3e-05,4e-06,2
787,8.2e-05,2e-06,2
788,0.000109,5e-06,2
789,8.3e-05,7e-06,2
790,0.000108,4e-06,2
791,0.000121,6e-06,2
792,7.1e-05,6e-06,2
793,6.2e-05,4e-06,2
794,6.6e-05,5e-06,2
795,0.000103,8e-06,2
796,6.6e-05,3e-06,2
797,0.000103,2e-06,2
798,0.000112,1.1e-05,2
799,0.000187,9e-06,2
800,7e-05,3e-06,2
801,6.2e-05,4e-06,2
802,7.9e-05,2e-06,2
803,8.1e-05,0.0,2
804,6.6e-05,3e-06,2
805,6.6e-05,1e-06,2
806,0.000155,9e-06,2
807,0.000144,3e-06,2
808,6.9e-05,6e-06,2
809,6e-05,4e-06,2
810,8.3e-05,2e-06,2
811,8.2e-05,2e-06,2
812,7.6e-05,1e-06,2
813,0.000103,0.0,2
814,0.00011,9e-06,2
815,0.000121,6e-06,2
816,7.1e-05,8e-06,2
817,5.3e-05,2e-06,2
818,7.8e-05,3e-06,2
819,8.2e-05,0.0,2
820,8e-05,2e-06,2
821,9.1e-05,1.3e-05,2
822,0.000109,5e-06,2
823,0.000125,2e-06,2
824,8.3e-05,1.3e-05,2
825,7.9e-05,3e-06,2
826,6.8e-05,8e-06,2
827,8.2e-05,2e-06,2
828,7.9e-05,3e-06,2
829,7.6e-05,1e-06,2
830,0.000155,8e-06,2
831,0.000361,1.8e-05,2
832,6.6e-05,3e-06,2
833,6.2e-05,2e-06,2
834,5.9e-05,1e-06,2
835,0.000132,7e-06,2
836,0.000109,5e-06,2
837,7.5e-05,8e-06,2
838,0.00025,1.3e-05,2
839,0.000125,0.0,2
840,5.7e-05,5e-06,2
841,6.9e-05,1e-06,2
842,6.8e-05,8e-06,2
843,8.5e-05,0.0,2
844,7.9e-05,1e-06,2
845,7.5e-05,8e-06,2
846,0.00011,9e-06,2
847,0.000137,1.5e-05,2
848,8.3e-05,1.3e-05,2
849,6e-05,4e-06,2
850,6.4e-05,2e-06,2
851,8.6e-05,0.0,2
852,8.7e-05,1.7e-05,2
853,9.2e-05,1.3e-05,2
854,9.9e-05,9e-06,2
855,0.000178,1e-06,2
856,8e-05,5e-06,2
857,5.2e-05,2e-06,2
858,7.7e-05,4e-06,2
859,8e-05,9e-06,2
860,7.6e-05,1e-06,2
861,0.000104,3e-06,2
862,0.000104,1.3e-05,2
863,0.000146,3e-06,2
864,7.2e-05,7e-06,2
865,6.2e-05,1e-06,2
866,7.6e-05,4e-06,2
867,8.1e-05,1e-06,2
868,6.9e-05,6e-06,2
869,8e-05,3e-06,2
870,0.00016,5e-06,2
871,0.000188,8e-06,2
872,6.9e-05,3e-06,2
873,6.9e-05,1e-06,2
874,6.6e-05,5e-06,2
875,8.5e-05,1e-06,2
876,0.000118,1e-05,2
877,0.000154,2e-06,2
878,0.000252,1.4e-05,2
879,0.000125,0.0,2
880,6.6e-05,3e-06,2
881,5.2e-05,3e-06,2
882,5.9e-05,1e-06,2
883,0.000195,9e-06,2
884,7.9e-05,0.0,2
885,0.000103,2e-06,2
886,0.000104,1.1e-05,2
887,0.000183,1e-06,2
888,9.9e-05,6e-06,2
889,6.6e-05,1e-06,2
890,7.1e-05,7e-06,2
891,8e-05,9e-06,2
892,6.6e-05,2e-06,2
893,0.000155,3e-06,2
894,0.00011,8e-06,2
895,0.000148,3e-06,2
896,6.2e-05,2e-06,2
897,6e-05,5e-06,2
898,6.6e-05,5e-06,2
899,0.000132,7e-06,2
900,7.9e-05,3e-06,2
901,7.6e-05,0.0,2
902,0.000109,5e-06,2
903,0.000146,8e-06,2
904,6.9e-05,2e-06,2
905,6.9e-05,1e-06,2
906,4.4e-05,3e-06,2
907,0.000133,7e-06,2
908,8.7e-05,1.7e-05,2
909,7.5e-05,1e-06,2
910,0.000109,5e-06,2
911,0.00014,1.3e-05,2
912,6.8e-05,6e-06,2
913,7.1e-05,9e-06,2
914,7.6e-05,5e-06,2
915,0.000117,4e-06,2
916,9.6e-05,7e-06,2
917,8.9e-05,4e-06,2
918,0.000131,9e-06,2
919,0.000146,1e-05,2
920,7.3e-05,7e-06,2
921,7.5e-05,9e-06,2
922,4.3e-05,3e-06,2
923,8.4e-05,1e-06,2
924,8.5e-05,7e-06,2
925,6.7e-05,0.0,2
926,0.000159,4e-06,2
927,0.00013,1.2e-05,2
928,6.2e-05,2e-06,2
929,8.3e-05,2e-06,2
930,6.7e-05,1e-06,2
931,0.000103,8e-06,2
932,9.6e-05,6e-06,2
933,7.5e-05,1e-06,2
934,0.000113,1.1e-05,2
935,0.000186,2e-06,2
936,6.9e-05,4e-06,2
937,7.1e-05,9e-06,2
938,7.3e-05,5e-06,2
939,0.000109,0.0,2
940,6.6e-05,2e-06,2
941,8.3e-05,5e-06,2
942,9.3e-05,9e-06,2
943,0.000164,2.1e-05,2
944,8.4e-05,1.3e-05,2
945,8e-05,8e-06,2
946,6.3e-05,2e-06,2
947,8.5e-05,1e-06,2
948,7.9e-05,1e-06,2
949,8.4e-05,3e-06,2
950,9.3e-05,8e-06,2
951,0.000146,5e-06,2
952,5.8e-05,5e-06,2
953,6.3e-05,5e-06,2
954,6.8e-05,6e-06,2
955,8.5e-05,0.0,2
956,7.3e-05,3e-06,2
957,8.9e-05,5e-06,2
958,9.9e-05,9e-06,2
959,0.000166,1.5e-05,2
960,6.9e-05,4e-06,2
961,7.1e-05,9e-06,2
962,6.8e-05,6e-06,2
963,0.000118,5e-06,2
964,7.5e-05,1e-06,2
965,7.9e-05,2e-06,2
966,0.000132,1e-05,2
967,0.000135,1e-06,2
968,9.4e-05,6e-06,2
969,6e-05,5e-06,2
970,7.1e-05,7e-06,2
971,8.5e-05,0.0,2
972,8.5e-05,7e-06,2
973,9.2e-05,1.4e-05,2
974,0.00011,8e-06,2
975,0.000188,3e-06,2
976,7.3e-05,7e-06,2
977,6.1e-05,1e-06,2
978,6.8e-05,6e-06,2
979,7.9e-05,8e-06,2
980,9.6e-05,7e-06,2
981,8.8e-05,6e-06,2
982,0.000156,7e-06,2
983,0.000147,1.1e-05,2
984,9.9e-05,6e-06,2
985,7.1e-05,9e-06,2
986,6.3e-05,2e-06,2
987,0.000195,8e-06,2
988,9.5e-05,5e-06,2
989,0.000155,4e-06,2
990,0.000111,7e-06,2
991,0.000189,7e-06,2
992,6.6e-05,4e-06,2
993,6.1e-05,0.0,2
994,6.6e-05,5e-06,2
995,0.000103,8e-06,2
996,0.000109,5e-06,2
997,9.2e-05,1.4e-05,2
998,0.000112,8e-06,2
999,0.000166,1.1e-05,2
1000,9.9e-05,7e-06,2
1001,7.2e-05,1e-05,2
1002,6.6e-05,1e-06,2
1003,9.7e-05,1e-06,2
1004,8.7e-05,1.8e-05,2
1005,8.3e-05,4e-06,2
1006,9.3e-05,8e-06,2
1007,0.000127,1e-06,2
1008,7.3e-05,7e-06,2
1009,6.3e-05,5e-06,2
1010,8.3e-05,2e-06,2
1011,0.000109,1e-06,2
1012,8e-05,1e-06,2
1013,7.5e-05,7e-06,2
1014,0.000105,1.1e-05,2
1015,0.000122,6e-06,2
1016,8.4e-05,1.4e-05,2
1017,8.1e-05,3e-06,2
1018,6.6e-05,1e-06,2
1019,0.000103,8e-06,2
1020,7.5e-05,1e-06,2
1021,0.000104,3e-06,2
1022,0.000112,8e-06,2
1023,0.000127,1e-06,2
1024,6.6e-05,4e-06,2
1025,7.7e-05,4e-06,2
1026,7.2e-05,4e-06,2
1027,0.000109,1e-06,2
1028,9.6e-05,7e-06,2
1029,8.5e-05,2e-06,2
1030,8.9e-05,9e-06,2
1031,0.000189,6e-06,2
1032,6.9e-05,4e-06,2
1033,7.1e-05,9e-06,2
1034,6.7e-05,1e-06,2
1035,8.4e-05,0.0,2
1036,6.6e-05,2e-06,2
1037,7.9e-05,1e-06,2
1038,9.9e-05,9e-06,2
1039,0.000137,1e-06,2
1040,6.7e-05,6e-06,2
1041,8e-05,7e-06,2
1042,4.3e-05,3e-06,2
1043,8.6e-05,1e-06,2
1044,8e-05,2e-06,2
1045,0.000105,4e-06,2
1046,0.000252,1.5e-05,2
1047,0.000138,1e-06,2
1048,8.4e-05,1.4e-05,2
1049,6e-05,5e-06,2
1050,4.3e-05,3e-06,2
1051,0.000103,8e-06,2
1052,7.8e-05,3e-06,2
1053,0.000103,3e-06,2
1054,0.00011,5e-06,2
1055,0.00019,6e-06,2
1056,5.8e-05,5e-06,2
1057,7.1e-05,9e-06,2
1058,6.7e-05,5e-06,2
1059,8.4e-05,0.0,2
1060,9.5e-05,5e-06,2
1061,7.5e-05,8e-06,2
1062,0.000106,1e-05,2
1063,0.000131,1.2e-05,2
1064,6.9e-05,3e-06,2
1065,7.8e-05,1.1e-05,2
1066,4.2e-05,3e-06,2
1067,0.000118,5e-06,2
1068,0.000119,1.1e-05,2
1069,0.000104,4e-06,2
1070,0.000112,8e-06,2
1071,0.000166,9e-06,2
1072,6.2e-05,3e-06,2
1073,6.1e-05,0.0,2
1074,6.5e-05,5e-06,2
1075,9e-05,7e-06,2
1076,7e-05,5e-06,2
1077,7.5e-05,8e-06,2
1078,0.000156,6e-06,2
1079,0.000191,4e-06,2
1080,8.5e-05,1.3e-05,2
1081,7.8e-05,1e-05,2
1082,6.2e-05,2e-06,2
1083,8.9e-05,8e-06,2
1084,6.6e-05,1e-06,2
1085,8.5e-05,2e-06,2
1086,9.9e-05,9e-06,2
1087,0.000192,4e-06,2
1088,7e-05,4e-06,2
1089,7.9e-05,6e-06,2
1090,6.6e-05,1e-06,2
1091,0.000197,9e-06,2
1092,8.7e-05,1.8e-05,2
1093,0.000105,4e-06,2
1094,8.9e-05,8e-06,2
1095,0.000127,0.0,2
1096,6.8e-05,3e-06,2
1097,6.3e-05,5e-06,2
1098,6.5e-05,5e-06,2
1099,7.9e-05,8e-06,2
1100,0.00012,1.1e-05,2
1101,0.000102,1e-06,2
1102,0.000106,1e-05,2
1103,0.000147,7e-06,2
1104,9.5e-05,6e-06,2
1105,7.7e-05,1e-05,2
1106,6.2e-05,2e-06,2
1107,0.000109,1e-06,2
1108,9.6e-05,5e-06,2
1109,8.3e-05,3e-06,2
1110,0.000161,2e-06,2
1111,0.000127,0.0,2
1112,7e-05,4e-06,2
1113,6.1e-05,0.0,2
1114,5.9e-05,2e-06,2
1115,8.2e-05,0.0,2
1116,8.8e-05,1.7e-05,2
1117,6.6e-05,1e-06,2
1118,9.9e-05,1e-05,2
1119,0.000166,8e-06,2
1120,6.8e-05,4e-06,2
1121,6.3e-05,6e-06,2
1122,6.6e-05,1e-06,2
1123,0.000109,1e-06,2
1124,6.6e-05,1e-06,2
1125,8.4e-05,3e-06,2
1126,9.3e-05,7e-06,2
1127,0.000147,1.2e-05,2
1128,7.1e-05,4e-06,2
1129,6e-05,5e-06,2
1130,5.9e-05,2e-06,2
1131,7.9e-05,8e-06,2
1132,9.6e-05,5e-06,2
1133,0.000101,0.0,2
1134,0.000106,9e-06,2
1135,0.000131,1.2e-05,2
1136,9.9e-05,7e-06,2
1137,5.1e-05,3e-06,2
1138,7.1e-05,4e-06,2
1139,8.3e-05,0.0,2
1140,8e-05,2e-06,2
1141,8.8e-05,6e-06,2
1142,9.9e-05,1e-05,2
1143,0.00019,6e-06,2
1144,8.5e-05,1.3e-05,2
1145,5.1e-05,3e-06,2
1146,4.2e-05,4e-06,2
1147,8.2e-05,0.0,2
1148,8e-05,2e-06,2
1149,7.5e-05,8e-06,2
1150,0.00011,5e-06,2
1151,0.00019,6e-06,2
1152,8.5e-05,1.3e-05,2
1153,7.1e-05,9e-06,2
1154,4.2e-05,4e-06,2
1155,0.000103,7e-06,2
1156,8e-05,2e-06,2
1157,7.8e-05,1e-06,2
1158,0.00016,2e-06,2
1159,0.000139,2e-06,2
1160,7.4e-05,7e-06,2
1161,6.6e-05,1e-06,2
1162,6.5e-05,5e-06,2
1163,8.2e-05,0.0,2
1164,7.1e-05,5e-06,2
1165,7.5e-05,8e-06,2
1166,0.000253,1.6e-05,2
1167,0.000127,0.0,2
1168,6.2e-05,3e-06,2
1169,8.1e-05,3e-06,2
1170,8.2e-05,2e-06,2
1171,8.7e-05,0.0,2
1172,0.00012,1.1e-05,2
1173,0.000155,5e-06,2
1174,0.000156,6e-06,2
1175,0.000139,2e-06,2
1176,8.6e-05,1.3e-05,2
1177,7.1e-05,9e-06,2
1178,6.6e-05,1e-06,2
1179,0.000103,7e-06,2
1180,8e-05,2e-06,2
1181,0.000103,4e-06,2
1182,0.000112,8e-06,2
1183,0.000151,2e-06,2
1184,8.6e-05,1.3e-05,2
1185,7.9e-05,6e-06,2
1186,7.6e-05,3e-06,2
1187,0.000109,1e-06,2
1188,7.8e-05,3e-06,2
1189,8.8e-05,7e-06,2
1190,9.9e-05,1e-05,2
1191,0.000193,4e-06,2
1192,8e-05,5e-06,2
1193,7.1e-05,1e-05,2
1194,6.7e-05,5e-06,2
1195,8.8e-05,8e-06,2
1196,8.4e-05,7e-06,2
1197,7.8e-05,1e-06,2
1198,0.000156,6e-06,2
1199,0.000194,4e-06,2
1200,8.5e-05,1.1e-05,4
1201,7.7e-05,1.4e-05,4
1202,8.4e-05,6e-06,4
1203,9.1e-05,1.2e-05,4
1204,8.2e-05,6e-06,4
1205,9.7e-05,1e-06,4
1206,0.000101,1.3e-05,4
1207,9e-05,3e-06,4
1208,6.7e-05,0.0,4
1209,7e-05,9e-06,4
1210,8e-05,7e-06,4
1211,0.000103,7e-06,4
1212,8.9e-05,4e-06,4
1213,5.5e-05,6e-06,4
1214,8.8e-05,2e-06,4
1215,0.000121,9e-06,4
1216,8.8e-05,7e-06,4
1217,0.000103,4e-06,4
1218,9.2e-05,1.1e-05,4
1219,0.000101,8e-06,4
1220,5.9e-05,4e-06,4
1221,8.2e-05,4e-06,4
1222,8.9e-05,7e-06,4
1223,9e-05,3e-06,4
1224,6.8e-05,1.3e-05,4
1225,7.2e-05,5e-06,4
1226,7.1e-05,1e-06,4
1227,9.8e-05,2e-06,4
1228,7.9e-05,9e-06,4
1229,7.9e-05,3e-06,4
1230,8.5e-05,2e-06,4
1231,0.00012,6e-06,4
1232,0.000101,6e-06,4
1233,8.3e-05,4e-06,4
1234,9.2e-05,3e-06,4
1235,0.000104,1.9e-05,4
1236,7.7e-05,6e-06,4
1237,7.5e-05,1.1e-05,4
1238,8.7e-05,1e-06,4
1239,9.4e-05,3e-06,4
1240,9.4e-05,8e-06,4
1241,0.000121,1.2e-05,4
1242,6.2e-05,1e-06,4
1243,9.1e-05,1.6e-05,4
1244,5.6e-05,1e-06,4
1245,9.1e-05,6e-06,4
1246,0.000108,1.5e-05,4
1247,0.000103,1.2e-05,4
1248,8.4e-05,7e-06,4
1249,6.9e-05,2e-05,4
1250,0.000112,1.6e-05,4
1251,0.000205,1e-06,4
1252,7.9e-05,7e-06,4
1253,0.000108,1e-05,4
1254,9.4e-05,4e-06,4
1255,9.2e-05,1e-06,4
1256,7.3e-05,1e-06,4
1257,7.9e-05,5e-06,4
1258,5.3e-05,1e-06,4
1259,0.000101,6e-06,4
1260,6.6e-05,2e-06,4
1261,7.9e-05,3e-06,4
1262,9.6e-05,7e-06,4
1263,0.00011,9e-06,4
1264,7.9e-05,4e-06,4
1265,0.000112,1e-05,4
1266,6e-05,1e-06,4
1267,0.000105,1.9e-05,4
1268,7.8e-05,8e-06,4
1269,9.4e-05,7e-06,4
1270,9e-05,1e-05,4
1271,0.00012,8e-06,4
1272,6.3e-05,1e-05,4
1273,6.6e-05,2e-05,4
1274,9.2e-05,1e-05,4
1275,7.8e-05,3e-06,4
1276,6.5e-05,2e-06,4
1277,8.9e-05,3e-06,4
1278,8.4e-05,2e-06,4
1279,9.3e-05,0.0,4
1280,6.9e-05,3e-06,4
1281,6.7e-05,8e-06,4
1282,6.8e-05,5e-06,4
1283,6.8e-05,1.1e-05,4
1284,6.4e-05,5e-06,4
1285,4.9e-05,2e-06,4
1286,9.5e-05,2e-06,4
1287,0.000119,6e-06,4
1288,7e-05,0.0,4
1289,7.2e-05,6e-06,4
1290,6.6e-05,6e-06,4
1291,8.7e-05,4e-06,4
1292,7.6e-05,1e-06,4
1293,9.3e-05,7e-06,4
1294,9.1e-05,8e-06,4
1295,0.000104,4e-06,4
1296,0.000103,5e-06,4
1297,9.3e-05,1e-05,4
1298,5.9e-05,2e-06,4
1299,0.0001,7e-06,4
1300,6.4e-05,6e-06,4
1301,9.2e-05,7e-06,4
1302,8.3e-05,2e-06,4
1303,0.000105,6e-06,4
1304,9.9e-05,6e-06,4
1305,6.5e-05,1.9e-05,4
1306,6.5e-05,4e-06,4
1307,6.5e-05,7e-06,4
1308,5.6e-05,1e-06,4
1309,7.3e-05,7e-06,4
1310,0.000102,1e-05,4
1311,0.000131,9e-06,4
1312,6.6e-05,1e-06,4
1313,9.2e-05,1.2e-05,4
1314,7.9e-05,6e-06,4
1315,8.9e-05,3e-06,4
1316,5.7e-05,1e-06,4
1317,4.8e-05,3e-06,4
1318,9.4e-05,6e-06,4
1319,0.000108,1.6e-05,4
1320,6.3e-05,9e-06,4
1321,6.7e-05,7e-06,4
1322,6.6e-05,6e-06,4
1323,7.9e-05,1e-06,4
1324,5.8e-05,1e-06,4
1325,7.2e-05,7e-06,4
1326,9e-05,1e-06,4
1327,9.3e-05,3e-06,4
1328,9.5e-05,6e-06,4
1329,6.7e-05,6e-06,4
1330,5.9e-05,2e-06,4
1331,8e-05,0.0,4
1332,8.9e-05,1e-06,4
1333,7.2e-05,6e-06,4
1334,0.000101,1e-06,4
1335,0.000125,8e-06,4
1336,6.9e-05,1e-06,4
1337,6.7e-05,5e-06,4
1338,9.6e-05,1e-06,4
1339,8.2e-05,5e-06,4
1340,7.5e-05,8e-06,4
1341,7.1e-05,8e-06,4
1342,0.000121,1.4e-05,4
1343,9e-05,5e-06,4
1344,9.9e-05,6e-06,4
1345,7.7e-05,8e-06,4
1346,5.9e-05,3e-06,4
1347,0.0001,3e-06,4
1348,5.8e-05,0.0,4
1349,9.3e-05,7e-06,4
1350,7e-05,1e-06,4
1351,0.000135,1e-05,4
1352,6.3e-05,9e-06,4
1353,6.5e-05,1.9e-05,4
1354,5.1e-05,1e-06,4
1355,0.000103,3e-06,4
1356,7.6e-05,2e-06,4
1357,7.2e-05,6e-06,4
1358,8.6e-05,6e-06,4
1359,0.000111,9e-06,4
1360,0.000104,2e-06,4
1361,9.2e-05,1.4e-05,4
1362,6.6e-05,6e-06,4
1363,0.000104,4e-06,4
1364,9.8e-05,4e-06,4
1365,0.000114,1.1e-05,4
1366,0.000107,8e-06,4
1367,0.000109,1.6e-05,4
1368,6.7e-05,1e-06,4
1369,5.6e-05,4e-06,4
1370,5e-05,0.0,4
1371,9.5e-05,2e-06,4
1372,9.6e-05,4e-06,4
1373,7.9e-05,4e-06,4
1374,9.2e-05,5e-06,4
1375,9.4e-05,2e-06,4
1376,7.9e-05,1e-06,4
1377,9.2e-05,1.4e-05,4
1378,8.7e-05,1e-06,4
1379,9.5e-05,1e-06,4
1380,7.7e-05,3e-06,4
1381,8.8e-05,1e-06,4
1382,0.00011,8e-06,4
1383,9.4e-05,2e-06,4
1384,6.8e-05,1e-06,4
1385,6.7e-05,5e-06,4
1386,6.6e-05,6e-06,4
1387,0.000106,2e-05,4
1388,7.6e-05,8e-06,4
1389,0.000116,1.1e-05,4
1390,7.1e-05,1e-06,4
1391,0.000128,8e-06,4
1392,0.000104,1e-06,4
1393,7.1e-05,6e-06,4
1394,6.5e-05,6e-06,4
1395,8e-05,0.0,4
1396,7.6e-05,7e-06,4
1397,9.3e-05,7e-06,4
1398,8.2e-05,4e-06,4
1399,9.3e-05,3e-06,4
1400,7.7e-05,0.0,4
1401,6.8e-05,3e-06,4
1402,6e-05,3e-06,4
1403,0.000221,7e-06,4
1404,9.4e-05,4e-06,4
1405,9.7e-05,1e-06,4
1406,0.000111,7e-06,4
1407,0.000109,1.7e-05,4
1408,6.2e-05,9e-06,4
1409,7.5e-05,8e-06,4
1410,0.000112,1.6e-05,4
1411,9.5e-05,7e-06,4
1412,8.7e-05,6e-06,4
1413,8e-05,4e-06,4
1414,0.000112,7e-06,4
1415,9.3e-05,4e-06,4
1416,7.7e-05,1e-06,4
1417,6.8e-05,4e-06,4
1418,9.6e-05,1e-06,4
1419,8.7e-05,3e-06,4
1420,8.9e-05,2e-06,4
1421,7.5e-05,3e-06,4
1422,8.3e-05,1e-06,4
1423,0.000137,1.2e-05,4
1424,6.8e-05,0.0,4
1425,5.4e-05,4e-06,4
1426,8.6e-05,1e-06,4
1427,0.000106,1.9e-05,4
1428,6.2e-05,4e-06,4
1429,8.1e-05,4e-06,4
1430,0.000123,1.3e-05,4
1431,9.1e-05,4e-06,4
1432,7.9e-05,0.0,4
1433,0.000113,1.1e-05,4
1434,6.4e-05,5e-06,4
1435,9.7e-05,1.6e-05,4
1436,7.7e-05,7e-06,4
1437,7.5e-05,3e-06,4
1438,9.3e-05,3e-06,4
1439,9.3e-05,2e-06,4
1440,9.7e-05,6e-06,4
1441,6.6e-05,2e-05,4
1442,8.4e-05,5e-06,4
1443,0.000105,4e-06,4
1444,7.8e-05,8e-06,4
1445,9.9e-05,1e-06,4
1446,8.4e-05,2e-06,4
1447,0.000113,9e-06,4
1448,7.9e-05,2e-06,4
1449,0.000115,1.1e-05,4
1450,6.5e-05,6e-06,4
1451,8.3e-05,5e-06,4
1452,9e-05,3e-06,4
1453,8.8e-05,0.0,4
1454,0.000101,1e-06,4
1455,0.000139,1.2e-05,4
1456,8.9e-05,4e-06,4
1457,0.000115,1.1e-05,4
1458,6.4e-05,5e-06,4
1459,0.000224,8e-06,4
1460,9.3e-05,4e-06,4
1461,8.5e-05,3e-06,4
1462,0.000123,1.2e-05,4
1463,9.2e-05,2e-06,4
1464,7e-05,2e-06,4
1465,7.1e-05,6e-06,4
1466,6.1e-05,4e-06,4
1467,9.7e-05,1.5e-05,4
1468,5.9e-05,0.0,4
1469,7.1e-05,7e-06,4
1470,8.3e-05,0.0,4
1471,9.6e-05,2e-06,4
1472,9e-05,3e-06,4
1473,6.7e-05,4e-06,4
1474,6.5e-05,6e-06,4
1475,0.000106,1.7e-05,4
1476,9.2e-05,3e-06,4
1477,8.8e-05,1e-06,4
1478,0.000101,1e-06,4
1479,0.000106,1e-05,4
1480,9.7e-05,5e-06,4
1481,0.000116,1.1e-05,4
1482,6.5e-05,6e-06,4
1483,0.000226,9e-06,4
1484,7.8e-05,0.0,4
1485,9.3e-05,7e-06,4
1486,8.2e-05,5e-06,4
1487,0.00014,1.3e-05,4
1488,0.000104,1e-06,4
1489,7.4e-05,7e-06,4
1490,6.8e-05,4e-06,4
1491,8.1e-05,0.0,4
1492,7.6e-05,7e-06,4
1493,8.3e-05,4e-06,4
1494,9e-05,9e-06,4
1495,9.1e-05,4e-06,4
1496,0.0001,5e-06,4
1497,6.7e-05,4e-06,4
1498,8.5e-05,5e-06,4
1499,8.1e-05,0.0,4
1500,5.9e-05,0.0,4
1501,7.2e-05,5e-06,4
1502,0.000101,1e-06,4
1503,0.000109,1.8e-05,4
1504,9e-05,2e-06,4
1505,9.1e-05,2.4e-05,4
1506,7.8e-05,5e-06,4
1507,8.5e-05,4e-06,4
1508,6e-05,6e-06,4
1509,9.3e-05,6e-06,4
1510,9.8e-05,9e-06,4
1511,0.000107,1e-05,4
1512,9.1e-05,2e-06,4
1513,9e-05,2.3e-05,4
1514,0.00011,1.5e-05,4
1515,0.000228,1e-05,4
1516,6.5e-05,7e-06,4
1517,8.2e-05,6e-06,4
1518,0.000113,6e-06,4
1519,9.1e-05,4e-06,4
1520,6.2e-05,8e-06,4
1521,6.6e-05,2e-05,4
1522,7.8e-05,4e-06,4
1523,8.4e-05,4e-06,4
1524,7.7e-05,3e-06,4
1525,7e-05,7e-06,4
1526,9.5e-05,2e-06,4
1527,0.000129,9e-06,4
1528,6.2e-05,8e-06,4
1529,7.4e-05,6e-06,4
1530,6.1e-05,4e-06,4
1531,9.3e-05,6e-06,4
1532,7.6e-05,7e-06,4
1533,7.6e-05,4e-06,4
1534,8.3e-05,3e-06,4
1535,9.1e-05,5e-06,4
1536,6.9e-05,1e-06,4
1537,0.000116,1.2e-05,4
1538,8.5e-05,5e-06,4
1539,8.1e-05,0.0,4
1540,8.2e-05,3e-06,4
1541,9.9e-05,0.0,4
1542,7.2e-05,1e-06,4
1543,0.00013,9e-06,4
1544,6.2e-05,8e-06,4
1545,0.00011,7e-06,4
1546,8.7e-05,1e-06,4
1547,9.3e-05,6e-06,4
1548,8.4e-05,5e-06,4
1549,5e-05,2e-06,4
1550,9.5e-05,2e-06,4
1551,9.2e-05,2e-06,4
1552,7.6e-05,1e-06,4
1553,7.2e-05,6e-06,4
1554,6.3e-05,5e-06,4
1555,9.7e-05,1.5e-05,4
1556,7.7e-05,1e-06,4
1557,5e-05,3e-06,4
1558,8.2e-05,4e-06,4
1559,9.2e-05,4e-06,4
1560,6.2e-05,8e-06,4
1561,7.2e-05,6e-06,4
1562,9.7e-05,2e-06,4
1563,0.000229,1e-05,4
1564,8.4e-05,7e-06,4
1565,5e-05,3e-06,4
1566,9e-05,9e-06,4
1567,8.1e-05,3e-06,4
1568,6.8e-05,1e-06,4
1569,9.1e-05,2.3e-05,4
1570,7.8e-05,4e-06,4
1571,9.8e-05,1.5e-05,4
1572,7.7e-05,4e-06,4
1573,8.1e-05,3e-06,4
1574,0.000124,1.3e-05,4
1575,8.1e-05,3e-06,4
1576,9.7e-05,5e-06,4
1577,5.4e-05,3e-06,4
1578,5e-05,0.0,4
1579,9.4e-05,1e-06,4
1580,5.9e-05,1e-06,4
1581,7.1e-05,6e-06,4
1582,9e-05,9e-06,4
1583,9.2e-05,4e-06,4
1584,8e-05,3e-06,4
1585,7.7e-05,5e-06,4
1586,9.7e-05,3e-06,4
1587,8.6e-05,5e-06,4
1588,8.5e-05,7e-06,4
1589,8.6e-05,4e-06,4
1590,8.1e-05,4e-06,4
1591,9.2e-05,2e-06,4
1592,6.8e-05,1e-06,4
1593,0.000111,6e-06,4
1594,9.7e-05,3e-06,4
1595,0.00023,1.1e-05,4
1596,5.9e-05,1e-06,4
1597,9.3e-05,6e-06,4
1598,0.000101,1e-06,4
1599,0.000128,2e-06,4
1600,6.2e-05,8e-06,4
1601,8.5e-05,4e-06,4
1602,6.5e-05,6e-06,4
1603,0.000106,5e-06,4
1604,7.8e-05,8e-06,4
1605,7.6e-05,4e-06,4
1606,9.2e-05,1e-06,4
1607,0.000116,7e-06,4
1608,7.6e-05,1e-06,4
1609,0.000111,6e-06,4
1610,6.7e-05,3e-06,4
1611,6.3e-05,4e-06,4
1612,9.1e-05,3e-06,4
1613,8.1e-05,3e-06,4
1614,8.9e-05,9e-06,4
1615,0.000131,9e-06,4
1616,6.8e-05,1e-06,4
1617,6.7e-05,4e-06,4
1618,9.8e-05,3e-06,4
1619,9.9e-05,2e-06,4
1620,8.5e-05,4e-06,4
1621,8.1e-05,3e-06,4
1622,8.2e-05,6e-06,4
1623,0.000131,9e-06,4
1624,9.1e-05,2e-06,4
1625,7.7e-05,4e-06,4
1626,6.5e-05,7e-06,4
1627,8.1e-05,0.0,4
1628,7.7e-05,7e-06,4
1629,8.8e-05,2e-06,4
1630,9.9e-05,9e-06,4
1631,0.000129,2e-06,4
1632,9.8e-05,5e-06,4
1633,7.3e-05,6e-06,4
1634,8.6e-05,1e-06,4
1635,0.00023,1.1e-05,4
1636,7.8e-05,8e-06,4
1637,7.5e-05,2e-06,4
1638,7.2e-05,1e-06,4
1639,8.1e-05,3e-06,4
1640,7e-05,3e-06,4
1641,0.000117,1.2e-05,4
1642,9.8e-05,3e-06,4
1643,8.1e-05,0.0,4
1644,6e-05,0.0,4
1645,8.8e-05,2e-06,4
1646,8.4e-05,9e-06,4
1647,0.00013,2e-06,4
1648,7e-05,3e-06,4
1649,8.4e-05,4e-06,4
1650,6.2e-05,4e-06,4
1651,0.000107,5e-06,4
1652,7.7e-05,4e-06,4
1653,0.0001,1e-06,4
1654,0.000124,1.2e-05,4
1655,0.000108,1.9e-05,4
1656,7.6e-05,1e-06,4
1657,0.000111,6e-06,4
1658,6.7e-05,2e-06,4
1659,8.5e-05,5e-06,4
1660,8.5e-05,8e-06,4
1661,7.2e-05,4e-06,4
1662,9.2e-05,1e-06,4
1663,9.6e-05,2e-06,4
1664,9.1e-05,2e-06,4
1665,7.3e-05,6e-06,4
1666,6.2e-05,4e-06,4
1667,6.2e-05,3e-06,4
1668,6.5e-05,7e-06,4
1669,7.7e-05,4e-06,4
1670,0.000101,1e-06,4
1671,9.2e-05,5e-06,4
1672,9.9e-05,5e-06,4
1673,6.6e-05,2e-05,4
1674,0.000108,1.4e-05,4
1675,0.000105,1.6e-05,4
1676,7.8e-05,4e-06,4
1677,9.3e-05,6e-06,4
1678,8.1e-05,5e-06,4
1679,0.000132,9e-06,4
1680,7e-05,3e-06,4
1681,7.2e-05,6e-06,4
1682,6.9e-05,9e-06,4
1683,9.3e-05,6e-06,4
1684,7.7e-05,6e-06,4
1685,7.7e-05,4e-06,4
1686,8.2e-05,6e-06,4
1687,9.3e-05,5e-06,4
1688,9.2e-05,1e-06,4
1689,9.2e-05,1.3e-05,4
1690,0.000107,1.3e-05,4
1691,8.1e-05,0.0,4
1692,7.7e-05,6e-06,4
1693,7.2e-05,4e-06,4
1694,0.000124,1.2e-05,4
1695,0.000117,7e-06,4
1696,7.6e-05,1e-06,4
1697,7.2e-05,6e-06,4
1698,6.7e-05,2e-06,4
1699,9.8e-05,1.5e-05,4
1700,7.8e-05,8e-06,4
1701,0.000101,1e-06,4
1702,8.2e-05,6e-06,4
1703,8.1e-05,3e-06,4
1704,7.5e-05,1e-06,4
1705,7.3e-05,6e-06,4
1706,0.000106,1.2e-05,4
1707,0.000231,1.1e-05,4
1708,8.6e-05,4e-06,4
1709,7.1e-05,6e-06,4
1710,0.0001,8e-06,4
1711,9.7e-05,2e-06,4
1712,7.1e-05,3e-06,4
1713,0.000116,1.1e-05,4
1714,8.6e-05,1e-06,4
1715,0.000105,1.5e-05,4
1716,8.6e-05,3e-06,4
1717,7.4e-05,3e-06,4
1718,9.5e-05,1e-06,4
1719,0.000118,7e-06,4
1720,6.9e-05,1e-06,4
1721,7.3e-05,6e-06,4
1722,6.4e-05,7e-06,4
1723,9.9e-05,1.4e-05,4
1724,7.7e-05,6e-06,4
1725,7.2e-05,4e-06,4
1726,0.000115,8e-06,4
1727,0.000108,1e-05,4
1728,7.1e-05,3e-06,4
1729,6.7e-05,4e-06,4
1730,9.8e-05,3e-06,4
1731,8.4e-05,4e-06,4
1732,7.7e-05,1e-06,4
1733,8.2e-05,6e-06,4
1734,8.3e-05,0.0,4
1735,8.2e-05,3e-06,4
1736,6.8e-05,0.0,4
1737,6.7e-05,4e-06,4
1738,7.8e-05,5e-06,4
1739,8.4e-05,5e-06,4
1740,7.7e-05,1e-06,4
1741,0.000116,1e-05,4
1742,8.2e-05,6e-06,4
1743,0.000131,2e-06,4
1744,7.5e-05,1e-06,4
1745,7.3e-05,6e-06,4
1746,8.5e-05,5e-06,4
1747,9.9e-05,1e-06,4
1748,7.7e-05,1e-06,4
1749,7.5e-05,3e-06,4
1750,0.0001,8e-06,4
1751,9.2e-05,1e-06,4
1752,9.2e-05,1e-06,4
1753,0.000116,1.2e-05,4
1754,8.6e-05,6e-06,4
1755,8.2e-05,0.0,4
1756,7.8e-05,4e-06,4
1757,5e-05,4e-06,4
1758,0.000115,7e-06,4
1759,0.000141,1.2e-05,4
1760,0.000102,4e-06,4
1761,7.3e-05,6e-06,4
1762,5e-05,0.0,4
1763,9.9e-05,1.4e-05,4
1764,9.1e-05,3e-06,4
1765,9.3e-05,6e-06,4
1766,0.0001,8e-06,4
1767,9.2e-05,1e-06,4
1768,0.000105,1e-06,4
1769,0.000117,1.2e-05,4
1770,6.4e-05,7e-06,4
1771,8.2e-05,0.0,4
1772,6.5e-05,7e-06,4
1773,7.1e-05,6e-06,4
1774,8e-05,6e-06,4
1775,0.000118,7e-06,4
1776,7.1e-05,3e-06,4
1777,7.2e-05,6e-06,4
1778,6.2e-05,4e-06,4
1779,8.5e-05,3e-06,4
1780,6e-05,0.0,4
1781,0.000101,1e-06,4
1782,8.2e-05,6e-06,4
1783,0.000108,1.9e-05,4
1784,6.9e-05,1e-06,4
1785,9.1e-05,2.2e-05,4
1786,8.6e-05,1e-06,4
1787,9.3e-05,6e-06,4
1788,9.1e-05,3e-06,4
1789,8.7e-05,3e-06,4
1790,8.3e-05,9e-06,4
1791,0.000108,1.9e-05,4
1792,9.7e-05,5e-06,4
1793,0.000117,1.2e-05,4
1794,6.4e-05,7e-06,4
1795,9.5e-05,1e-06,4
1796,6e-05,6e-06,4
1797,8.2e-05,7e-06,4
1798,0.000115,7e-06,4
1799,9.7e-05,2e-06,4
1800,7.4e-05,0.0,8
1801,9.5e-05,8e-06,8
1802,7.9e-05,2e-06,8
1803,0.000145,6e-06,8
1804,7.5e-05,9e-06,8
1805,0.000104,1e-05,8
1806,9e-05,3e-06,8
1807,0.000119,4e-06,8
1808,9.1e-05,1e-06,8
1809,0.000139,6e-06,8
1810,8.4e-05,1.3e-05,8
1811,0.000103,1e-05,8
1812,0.000115,1.6e-05,8
1813,7.3e-05,3e-06,8
1814,0.000137,1.6e-05,8
1815,8.6e-05,4e-06,8
1816,7.5e-05,5e-06,8
1817,9.6e-05,3e-06,8
1818,0.000129,1.1e-05,8
1819,9.6e-05,1.5e-05,8
1820,5.9e-05,2e-06,8
1821,9e-05,6e-06,8
1822,8.6e-05,0.0,8
1823,0.000118,2.6e-05,8
1824,8.8e-05,3e-06,8
1825,9.7e-05,1.5e-05,8
1826,8.1e-05,1.3e-05,8
1827,9.9e-05,2e-06,8
1828,5.9e-05,3e-06,8
1829,7.2e-05,3e-06,8
1830,0.000142,1.9e-05,8
1831,0.000102,1e-06,8
1832,8.2e-05,7e-06,8
1833,0.000103,5e-06,8
1834,6.8e-05,0.0,8
1835,0.000233,1.7e-05,8
1836,7.4e-05,5e-06,8
1837,7.4e-05,1.2e-05,8
1838,7.4e-05,4e-06,8
1839,0.000117,3e-06,8
1840,6.4e-05,1.3e-05,8
1841,9.8e-05,4e-06,8
1842,0.000102,3e-06,8
1843,0.00013,1e-05,8
1844,7.4e-05,4e-06,8
1845,0.000109,4e-06,8
1846,9.8e-05,1.1e-05,8
1847,0.000126,0.0,8
1848,7.5e-05,4e-06,8
1849,8.9e-05,1.3e-05,8
1850,8e-05,1.3e-05,8
1851,0.000242,1.8e-05,8
1852,7.5e-05,1e-05,8
1853,9.7e-05,7e-06,8
1854,0.000116,2e-06,8
1855,0.000104,1.6e-05,8
1856,7.9e-05,5e-06,8
1857,9.2e-05,6e-06,8
1858,8.2e-05,7e-06,8
1859,0.000106,0.0,8
1860,7.6e-05,1.2e-05,8
1861,0.000133,2.5e-05,8
1862,8.4e-05,2e-06,8
1863,0.000118,6e-06,8
1864,8.6e-05,3e-06,8
1865,0.000109,4e-06,8
1866,9.4e-05,2e-06,8
1867,0.000107,1e-06,8
1868,7.2e-05,1.2e-05,8
1869,0.000106,8e-06,8
1870,8.5e-05,2e-06,8
1871,0.00014,7e-06,8
1872,7.8e-05,5e-06,8
1873,0.000105,6e-06,8
1874,6.9e-05,2e-06,8
1875,9.8e-05,2e-06,8
1876,9.6e-05,0.0,8
1877,0.000106,6e-06,8
1878,8.5e-05,2e-06,8
1879,0.000119,7e-06,8
1880,9.3e-05,1e-06,8
1881,9.1e-05,6e-06,8
1882,0.000102,1.4e-05,8
1883,0.000107,1e-06,8
1884,5.9e-05,3e-06,8
1885,8.2e-05,5e-06,8
1886,0.000114,5e-06,8
1887,0.000113,6e-06,8
1888,8.7e-05,3e-06,8
1889,8.6e-05,3e-06,8
1890,7.2e-05,2e-06,8
1891,0.000107,2e-06,8
1892,9.4e-05,0.0,8
1893,9.4e-05,2e-06,8
1894,0.0001,8e-06,8
1895,0.000115,6e-06,8
1896,8.1e-05,5e-06,8
1897,9.7e-05,5e-06,8
1898,8.8e-05,2e-06,8
1899,0.000141,7e-06,8
1900,7.3e-05,5e-06,8
1901,8.2e-05,8e-06,8
1902,8.5e-05,2e-06,8
1903,0.000122,4e-06,8
1904,7.8e-05,4e-06,8
1905,9.8e-05,4e-06,8
1906,7.2e-05,2e-06,8
1907,0.000246,2e-05,8
1908,6.8e-05,0.0,8
1909,8.1e-05,9e-06,8
1910,0.000113,6e-06,8
1911,0.000109,1.4e-05,8
1912,7e-05,1e-06,8
1913,0.00011,4e-06,8
1914,0.000134,1e-05,8
1915,0.000122,2e-06,8
1916,8.3e-05,3e-06,8
1917,9.4e-05,1e-06,8
1918,9.6e-05,7e-06,8
1919,9.5e-05,1e-06,8
1920,8.1e-05,4e-06,8
1921,8.5e-05,2e-06,8
1922,7.3e-05,3e-06,8
1923,0.000126,3e-06,8
1924,9.3e-05,0.0,8
1925,0.00011,1e-06,8
1926,7.3e-05,8e-06,8
1927,9.9e-05,3e-06,8
1928,6.6e-05,8e-06,8
1929,9.8e-05,4e-06,8
1930,8.9e-05,5e-06,8
1931,0.000104,1.1e-05,8
1932,7.6e-05,3e-06,8
1933,8.1e-05,1e-05,8
1934,7.4e-05,8e-06,8
1935,9.6e-05,0.0,8
1936,7e-05,1e-06,8
1937,0.000106,7e-06,8
1938,8.3e-05,2e-06,8
1939,0.000128,3e-06,8
1940,5.9e-05,3e-06,8
1941,9.4e-05,1.2e-05,8
1942,0.000101,8e-06,8
1943,0.000101,1.3e-05,8
1944,9.4e-05,5e-06,8
1945,8.9e-05,3e-06,8
1946,8.7e-05,1e-06,8
1947,0.000114,0.0,8
1948,0.000104,1e-05,8
1949,7.1e-05,4e-06,8
1950,0.000113,6e-06,8
1951,9.6e-05,2e-06,8
1952,6.6e-05,8e-06,8
1953,0.000148,7e-06,8
1954,8e-05,1.3e-05,8
1955,0.000248,2e-05,8
1956,7.4e-05,1e-06,8
1957,9e-05,1e-05,8
1958,0.000101,9e-06,8
1959,9.5e-05,0.0,8
1960,6.2e-05,2e-06,8
1961,8.4e-05,1e-06,8
1962,8.7e-05,1e-06,8
1963,0.000123,1e-06,8
1964,7.5e-05,1.1e-05,8
1965,9.6e-05,4e-06,8
1966,8.3e-05,1e-06,8
1967,0.000119,9e-06,8
1968,8.6e-05,2e-06,8
1969,0.000148,8e-06,8
1970,6.7e-05,1e-06,8
1971,0.00025,2e-05,8
1972,8e-05,9e-06,8
1973,0.000111,0.0,8
1974,0.000101,9e-06,8
1975,0.000106,7e-06,8
1976,7.7e-05,1.2e-05,8
1977,8.9e-05,5e-06,8
1978,8e-05,1.3e-05,8
1979,0.000108,2e-06,8
1980,9.2e-05,1e-06,8
1981,0.000101,1.1e-05,8
1982,0.000142,2.1e-05,8
1983,0.000112,1.9e-05,8
1984,7.6e-05,1.2e-05,8
1985,9.2e-05,9e-06,8
1986,6.6e-05,2e-06,8
1987,0.000124,3e-06,8
1988,6.5e-05,2e-06,8
1989,7.5e-05,9e-06,8
1990,9.6e-05,1e-06,8
1991,0.000131,1e-05,8
1992,6e-05,2e-06,8
1993,0.000107,7e-06,8
1994,9e-05,2e-06,8
1995,0.000103,1e-05,8
1996,8.9e-05,6e-06,8
1997,7.1e-05,4e-06,8
1998,0.000109,3e-06,8
1999,0.00012,9e-06,8
2000,7.8e-05,4e-06,8
2001,9.2e-05,7e-06,8
2002,8.7e-05,2e-06,8
2003,9.7e-05,0.0,8
2004,7.4e-05,3e-06,8
2005,0.000105,7e-06,8
2006,8.5e-05,2e-06,8
2007,9.7e-05,1e-06,8
2008,8.7e-05,2e-06,8
2009,9.1e-05,6e-06,8
2010,8.9e-05,5e-06,8
2011,0.0001,1.4e-05,8
2012,8.3e-05,1e-06,8
2013,7.6e-05,9e-06,8
2014,0.000102,1e-05,8
2015,9.6e-05,1e-06,8
2016,6e-05,2e-06,8
2017,9.2e-05,1e-05,8
2018,8.1e-05,9e-06,8
2019,0.000134,4e-06,8
2020,9.9e-05,8e-06,8
2021,9.7e-05,5e-06,8
2022,9.1e-05,4e-06,8
2023,0.000123,3e-06,8
2024,8.6e-05,2e-06,8
2025,9.2e-05,1e-05,8
2026,8.9e-05,5e-06,8
2027,0.000113,9e-06,8
2028,9.2e-05,1e-06,8
2029,9.8e-05,5e-06,8
2030,8.3e-05,1e-06,8
2031,9.6e-05,0.0,8
2032,7.8e-05,3e-06,8
2033,8.4e-05,1e-06,8
2034,0.000104,1.3e-05,8
2035,0.0001,1.4e-05,8
2036,8.7e-05,5e-06,8
2037,9.4e-05,1e-05,8
2038,9.3e-05,2e-06,8
2039,0.000111,1.7e-05,8
2040,7.8e-05,4e-06,8
2041,0.000108,8e-06,8
2042,7.3e-05,3e-06,8
2043,0.000104,9e-06,8
2044,9.7e-05,7e-06,8
2045,7.6e-05,9e-06,8
2046,0.000107,1e-06,8
2047,0.000113,9e-06,8
2048,7.6e-05,1.2e-05,8
2049,9.2e-05,1e-05,8
2050,7.9e-05,1.3e-05,8
2051,0.000114,1e-06,8
2052,7.5e-05,1.1e-05,8
2053,0.000104,5e-06,8
2054,7.5e-05,9e-06,8
2055,0.000131,1.3e-05,8
2056,9.4e-05,5e-06,8
2057,0.000113,2e-06,8
2058,0.000104,1.3e-05,8
2059,0.000104,8e-06,8
2060,9.5e-05,6e-06,8
2061,0.000126,1.4e-05,8
2062,8.3e-05,1e-06,8
2063,0.000107,7e-06,8
2064,7.8e-05,0.0,8
2065,9e-05,1.1e-05,8
2066,7.3e-05,3e-06,8
2067,0.000109,1e-06,8
2068,7.4e-05,3e-06,8
2069,0.000126,1.3e-05,8
2070,8.5e-05,2e-06,8
2071,0.000108,6e-06,8
2072,7e-05,1e-06,8
2073,0.000108,8e-06,8
2074,8.6e-05,2e-06,8
2075,0.000104,8e-06,8
2076,7.5e-05,3e-06,8
2077,8.1e-05,1e-05,8
2078,0.000141,2e-05,8
2079,0.0001,1e-06,8
2080,7e-05,1e-06,8
2081,9.2e-05,1.1e-05,8
2082,8.7e-05,2e-06,8
2083,9.9e-05,1e-06,8
2084,8.6e-05,5e-06,8
2085,0.000105,5e-06,8
2086,7.5e-05,9e-06,8
2087,0.000121,9e-06,8
2088,8.1e-05,4e-06,8
2089,0.000113,1e-06,8
2090,0.000104,1.2e-05,8
2091,0.000104,8e-06,8
2092,7.4e-05,5e-06,8
2093,0.000104,1.1e-05,8
2094,0.000106,0.0,8
2095,0.000111,1.4e-05,8
2096,9.4e-05,5e-06,8
2097,9e-05,5e-06,8
2098,8.8e-05,5e-06,8
2099,0.000109,1e-06,8
2100,6.9e-05,1.2e-05,8
2101,0.000105,4e-06,8
2102,9.4e-05,2e-06,8
2103,0.00012,6e-06,8
2104,8.7e-05,2e-06,8
2105,9.2e-05,1.1e-05,8
2106,8.1e-05,9e-06,8
2107,0.000109,1e-06,8
2108,7.5e-05,3e-06,8
2109,0.000111,1e-06,8
2110,0.000113,7e-06,8
2111,0.000101,1e-06,8
2112,8.8e-05,2e-06,8
2113,8.9e-05,1.1e-05,8
2114,0.000101,2e-06,8
2115,0.000124,5e-06,8
2116,8.5e-05,5e-06,8
2117,8.1e-05,1e-05,8
2118,7.5e-05,9e-06,8
2119,0.000118,5e-06,8
2120,8.1e-05,3e-06,8
2121,0.000113,1e-06,8
2122,8.8e-05,5e-06,8
2123,0.000131,4e-06,8
2124,9.1e-05,1e-06,8
2125,0.000134,1e-06,8
2126,9.4e-05,2e-06,8
2127,0.00011,1.6e-05,8
2128,7.8e-05,4e-06,8
2129,8.3e-05,1e-06,8
2130,0.0001,2e-06,8
2131,0.000114,9e-06,8
2132,9.3e-05,5e-06,8
2133,8.1e-05,1e-05,8
2134,7.9e-05,7e-06,8
2135,0.000132,1.3e-05,8
2136,7.6e-05,1.2e-05,8
2137,8.9e-05,1.1e-05,8
2138,0.0001,3e-06,8
2139,0.000251,2e-05,8
2140,8.5e-05,5e-06,8
2141,8.1e-05,1.1e-05,8
2142,7.5e-05,8e-06,8
2143,0.000133,1.4e-05,8
2144,8.1e-05,3e-06,8
2145,9.1e-05,5e-06,8
2146,0.000105,1.2e-05,8
2147,0.000138,3e-06,8
2148,7.4e-05,4e-06,8
2149,9.8e-05,6e-06,8
2150,0.000141,2e-05,8
2151,0.000143,1e-05,8
2152,7.8e-05,4e-06,8
2153,8.3e-05,1e-06,8
2154,8.7e-05,2e-06,8
2155,0.000109,1e-06,8
2156,6e-05,4e-06,8
2157,9.9e-05,6e-06,8
2158,0.00014,2e-05,8
2159,0.00011,1.5e-05,8
2160,6e-05,2e-06,8
2161,9.2e-05,1.1e-05,8
2162,7.3e-05,4e-06,8
2163,0.000115,8e-06,8
2164,6e-05,4e-06,8
2165,0.000111,1e-06,8
2166,8.3e-05,2e-06,8
2167,0.000116,1.1e-05,8
2168,8.1e-05,3e-06,8
2169,7.2e-05,3e-06,8
2170,9.1e-05,2e-06,8
2171,0.000115,2e-06,8
2172,8.5e-05,5e-06,8
2173,8.1e-05,1.1e-05,8
2174,8.1e-05,9e-06,8
2175,0.000117,3e-06,8
2176,7.6e-05,1.2e-05,8
2177,8.9e-05,1.2e-05,8
2178,7.4e-05,4e-06,8
2179,0.000114,2e-06,8
2180,6.8e-05,1.1e-05,8
2181,7e-05,4e-06,8
2182,8.1e-05,9e-06,8
2183,0.000118,1.1e-05,8
2184,8.8e-05,2e-06,8
2185,9.2e-05,5e-06,8
2186,8.7e-05,2e-06,8
2187,0.000114,2e-06,8
2188,6.8e-05,1.1e-05,8
2189,0.000105,1.2e-05,8
2190,8.4e-05,0.0,8
2191,0.000117,3e-06,8
2192,7.2e-05,0.0,8
2193,9.3e-05,1.1e-05,8
2194,0.000134,1.1e-05,8
2195,0.000142,6e-06,8
2196,6.5e-05,2e-06,8
2197,0.000111,2e-06,8
2198,7.5e-05,8e-06,8
2199,9.7e-05,0.0,8
2200,7.6e-05,1e-06,8
2201,8.8e-05,1.2e-05,8
2202,0.0001,3e-06,8
2203,0.000109,1e-06,8
2204,9.3e-05,4e-06,8
2205,0.000127,1.2e-05,8
2206,8.3e-05,2e-06,8
2207,0.000109,1.4e-05,8
2208,7.6e-05,1.2e-05,8
2209,8.3e-05,1e-06,8
2210,8e-05,9e-06,8
2211,0.000109,1e-06,8
2212,6.6e-05,2e-06,8
2213,9.2e-05,7e-06,8
2214,0.000114,0.0,8
2215,0.000102,1e-06,8
2216,8.8e-05,2e-06,8
2217,0.000109,8e-06,8
2218,8.7e-05,2e-06,8
2219,0.000132,4e-06,8
2220,8.4e-05,1.1e-05,8
2221,9.3e-05,5e-06,8
2222,0.000106,1e-06,8
2223,0.000113,1.3e-05,8
2224,7.8e-05,4e-06,8
2225,9.8e-05,4e-06,8
2226,0.0001,2e-06,8
2227,0.000104,8e-06,8
2228,8.2e-05,3e-06,8
2229,0.000135,0.0,8
2230,7.5e-05,8e-06,8
2231,0.000117,3e-06,8
2232,7.6e-05,1.2e-05,8
2233,7.2e-05,4e-06,8
2234,0.000101,2e-06,8
2235,0.000138,3e-06,8
2236,6.8e-05,1.1e-05,8
2237,0.000127,1.2e-05,8
2238,0.000103,5e-06,8
2239,0.000111,5e-06,8
2240,7.8e-05,0.0,8
2241,9e-05,7e-06,8
2242,8.8e-05,5e-06,8
2243,0.00011,1e-06,8
2244,6.8e-05,1.1e-05,8
2245,8.1e-05,1.1e-05,8
2246,7.5e-05,8e-06,8
2247,0.000133,1.4e-05,8
2248,8.1e-05,3e-06,8
2249,9.3e-05,7e-06,8
2250,8.5e-05,2e-06,8
2251,0.000251,1.9e-05,8
2252,8.3e-05,4e-06,8
2253,9.9e-05,6e-06,8
2254,0.000104,5e-06,8
2255,0.000109,1.4e-05,8
2256,7e-05,0.0,8
2257,9e-05,7e-06,8
2258,0.0001,3e-06,8
2259,0.000102,1.4e-05,8
2260,7.4e-05,1.1e-05,8
2261,9.5e-05,1e-05,8
2262,0.000102,1e-05,8
2263,0.000121,1e-05,8
2264,7.8e-05,0.0,8
2265,9.2e-05,5e-06,8
2266,0.000101,2e-06,8
2267,0.000125,6e-06,8
2268,8.4e-05,5e-06,8
2269,9.4e-05,1e-05,8
2270,0.000114,2e-06,8
2271,0.000121,1e-05,8
2272,8.6e-05,2e-06,8
2273,0.000147,8e-06,8
2274,6.6e-05,2e-06,8
2275,0.000133,4e-06,8
2276,7.4e-05,4e-06,8
2277,0.000127,1.1e-05,8
2278,0.00014,2e-05,8
2279,0.000143,1e-05,8
2280,7.9e-05,0.0,8
2281,7.2e-05,4e-06,8
2282,0.000134,1.2e-05,8
2283,0.000104,8e-06,8
2284,8.4e-05,4e-06,8
2285,0.000127,1.1e-05,8
2286,8.9e-05,2e-06,8
2287,0.000121,9e-06,8
2288,8.8e-05,2e-06,8
2289,9e-05,7e-06,8
2290,0.000105,1.2e-05,8
2291,0.000139,2e-06,8
2292,7.5e-05,3e-06,8
2293,7.6e-05,9e-06,8
2294,8.4e-05,2e-06,8
2295,0.000122,1e-05,8
2296,7.9e-05,0.0,8
2297,0.000109,8e-06,8
2298,0.000134,1.2e-05,8
2299,0.000125,7e-06,8
2300,8.3e-05,4e-06,8
2301,9.9e-05,6e-06,8
2302,0.000104,5e-06,8
2303,0.000122,1e-05,8
2304,7.8e-05,4e-06,8
2305,9.8e-05,4e-06,8
2306,8.1e-05,9e-06,8
2307,0.000115,8e-06,8
2308,9.2e-05,4e-06,8
2309,9.5e-05,9e-06,8
2310,0.00014,2e-05,8
2311,0.000111,5e-06,8
2312,8.1e-05,3e-06,8
2313,9.3e-05,5e-06,8
2314,6.6e-05,2e-06,8
2315,0.000104,8e-06,8
2316,7.4e-05,1.1e-05,8
2317,8e-05,1.1e-05,8
2318,0.000104,5e-06,8
2319,0.000118,1.2e-05,8
2320,6.6e-05,7e-06,8
2321,0.000109,7e-06,8
2322,0.000105,1.2e-05,8
2323,0.000116,8e-06,8
2324,7.5e-05,3e-06,8
2325,7e-05,4e-06,8
2326,0.000102,1.1e-05,8
2327,9.7e-05,0.0,8
2328,8.1e-05,3e-06,8
2329,0.000113,1e-06,8
2330,8.7e-05,2e-06,8
2331,0.000252,1.9e-05,8
2332,6e-05,4e-06,8
2333,9.3e-05,4e-06,8
2334,0.000102,1.1e-05,8
2335,0.000123,3e-06,8
2336,7.6e-05,1.2e-05,8
2337,9.3e-05,1.1e-05,8
2338,0.000102,2e-06,8
2339,0.000102,1.3e-05,8
2340,6.6e-05,1e-06,8
2341,0.000108,1.2e-05,8
2342,8.4e-05,0.0,8
2343,0.000119,1.2e-05,8
2344,7e-05,0.0,8
2345,9.3e-05,4e-06,8
2346,9.1e-05,1e-06,8
2347,0.000142,5e-06,8
2348,6.8e-05,1e-05,8
2349,0.000108,1.2e-05,8
2350,0.00014,2e-05,8
2351,0.000124,3e-06,8
2352,8.5e-05,2e-06,8
2353,9.8e-05,4e-06,8
2354,9.2e-05,1e-06,8
2355,0.0001,3e-06,8
2356,8.6e-05,1.2e-05,8
2357,0.000127,1.1e-05,8
2358,8.2e-05,1e-05,8
2359,0.000119,1.2e-05,8
2360,7e-05,0.0,8
2361,9.8e-05,4e-06,8
2362,7.9e-05,1.3e-05,8
2363,0.000116,8e-06,8
2364,9.2e-05,4e-06,8
2365,8.1e-05,1.1e-05,8
2366,8.2e-05,1e-05,8
2367,0.000108,1.3e-05,8
2368,7.9e-05,0.0,8
2369,8.8e-05,1.6e-05,8
2370,7.9e-05,1.3e-05,8
2371,0.000125,7e-06,8
2372,7.4e-05,3e-06,8
2373,8.1e-05,1.1e-05,8
2374,8.3e-05,1e-05,8
2375,0.000124,3e-06,8
2376,7.2e-05,0.0,8
2377,9.3e-05,6e-06,8
2378,0.0001,4e-06,8
2379,0.0001,3e-06,8
2380,9.1e-05,0.0,8
2381,7e-05,4e-06,8
2382,0.000139,2e-05,8
2383,0.00012,1.2e-05,8
2384,7e-05,0.0,8
2385,8.3e-05,1e-06,8
2386,0.000102,2e-06,8
2387,0.000115,2e-06,8
2388,8.4e-05,4e-06,8
2389,7e-05,4e-06,8
2390,0.000114,3e-06,8
2391,0.000108,1.3e-05,8
2392,7.6e-05,2e-06,8
2393,9.3e-05,4e-06,8
2394,7.4e-05,4e-06,8
2395,0.000105,8e-06,8
2396,6.6e-05,1e-06,8
2397,8e-05,1.1e-05,8
2398,0.000139,2e-05,8
2399,0.000112,5e-06,8
2400,9.7e-05,1e-06,16
2401,9.8e-05,4e-06,16
2402,7.8e-05,1e-06,16
2403,0.000113,0.0,16
2404,9.3e-05,4e-06,16
2405,7.3e-05,5e-06,16
2406,9.3e-05,6e-06,16
2407,9.1e-05,1.1e-05,16
2408,9.6e-05,8e-06,16
2409,0.000104,2e-06,16
2410,9.9e-05,1e-05,16
2411,9.7e-05,3e-06,16
2412,6.8e-05,4e-06,16
2413,0.000102,8e-06,16
2414,9.6e-05,1.7e-05,16
2415,9.4e-05,7e-06,16
2416,8.5e-05,1.9e-05,16
2417,0.00012,0.0,16
2418,7.6e-05,2e-06,16
2419,8.3e-05,0.0,16
2420,6.2e-05,2e-06,16
2421,7.7e-05,8e-06,16
2422,8.3e-05,1e-05,16
2423,9.4e-05,1.1e-05,16
2424,9.6e-05,1e-06,16
2425,9.5e-05,2e-06,16
2426,9.8e-05,1.1e-05,16
2427,0.000114,5e-06,16
2428,0.000107,3e-06,16
2429,9.5e-05,3e-06,16
2430,7.2e-05,1.6e-05,16
2431,8.6e-05,7e-06,16
2432,8.4e-05,1e-06,16
2433,9.1e-05,6e-06,16
2434,7.8e-05,3e-06,16
2435,9.4e-05,8e-06,16
2436,8.5e-05,2e-06,16
2437,9.8e-05,3e-06,16
2438,6.8e-05,1e-06,16
2439,8.7e-05,5e-06,16
2440,7.8e-05,7e-06,16
2441,9e-05,6e-06,16
2442,6.4e-05,2e-06,16
2443,0.000113,7e-06,16
2444,7.2e-05,7e-06,16
2445,6.7e-05,3e-06,16
2446,8.4e-05,8e-06,16
2447,8.7e-05,1e-05,16
2448,9.2e-05,2e-06,16
2449,6.2e-05,2e-06,16
2450,7.3e-05,1e-06,16
2451,9.2e-05,4e-06,16
2452,7.8e-05,4e-06,16
2453,9.4e-05,7e-06,16
2454,8.8e-05,2e-06,16
2455,0.000104,1e-05,16
2456,7.3e-05,8e-06,16
2457,7.9e-05,5e-06,16
2458,6.3e-05,3e-06,16
2459,0.000106,6e-06,16
2460,7.8e-05,4e-06,16
2461,6.8e-05,1.1e-05,16
2462,8.6e-05,1.5e-05,16
2463,0.000111,2e-06,16
2464,9e-05,5e-06,16
2465,9.8e-05,5e-06,16
2466,7.3e-05,1e-06,16
2467,8.2e-05,4e-06,16
2468,5.7e-05,1e-06,16
2469,9.3e-05,9e-06,16
2470,6.9e-05,3e-06,16
2471,9.5e-05,8e-06,16
2472,7.8e-05,4e-06,16
2473,8.4e-05,0.0,16
2474,7.3e-05,1e-06,16
2475,9e-05,3e-06,16
2476,8.5e-05,9e-06,16
2477,9.2e-05,1e-05,16
2478,8.3e-05,7e-06,16
2479,0.000114,8e-06,16
2480,7.4e-05,6e-06,16
2481,8.6e-05,7e-06,16
2482,7.5e-05,1e-06,16
2483,9e-05,6e-06,16
2484,7.1e-05,8e-06,16
2485,8.5e-05,3e-06,16
2486,5.8e-05,8e-06,16
2487,0.000115,2e-06,16
2488,7.4e-05,6e-06,16
2489,9.4e-05,1e-06,16
2490,7.5e-05,1e-06,16
2491,9.2e-05,6e-06,16
2492,7.1e-05,9e-06,16
2493,8.1e-05,5e-06,16
2494,8.4e-05,6e-06,16
2495,7.1e-05,1e-05,16
2496,9.1e-05,2e-06,16
2497,8.8e-05,6e-06,16
2498,8.4e-05,9e-06,16
2499,0.000101,4e-06,16
2500,7.1e-05,9e-06,16
2501,0.000101,1.2e-05,16
2502,8.9e-05,7e-06,16
2503,0.000115,3e-06,16
2504,9.2e-05,1.8e-05,16
2505,0.000118,2e-06,16
2506,7.8e-05,3e-06,16
2507,9.1e-05,6e-06,16
2508,5.7e-05,1e-06,16
2509,0.000102,2e-06,16
2510,8.4e-05,4e-06,16
2511,9.1e-05,1e-05,16
2512,6.8e-05,4e-06,16
2513,9.1e-05,3e-06,16
2514,7.8e-05,3e-06,16
2515,9e-05,5e-06,16
2516,0.000105,1e-06,16
2517,6.7e-05,3e-06,16
2518,8.7e-05,1.3e-05,16
2519,8e-05,2e-06,16
2520,8.8e-05,3e-06,16
2521,0.0001,9e-06,16
2522,9.4e-05,1e-05,16
2523,9.3e-05,1e-06,16
2524,9.1e-05,1e-06,16
2525,6.8e-05,3e-06,16
2526,8.4e-05,7e-06,16
2527,8.8e-05,1e-05,16
2528,8.3e-05,0.0,16
2529,9.9e-05,9e-06,16
2530,7.6e-05,0.0,16
2531,8.4e-05,5e-06,16
2532,5.7e-05,1e-06,16
2533,8.2e-05,4e-06,16
2534,8.9e-05,7e-06,16
2535,8.4e-05,2e-06,16
2536,7.6e-05,3e-06,16
2537,8.8e-05,6e-06,16
2538,0.000148,7e-06,16
2539,6.7e-05,5e-06,16
2540,7.2e-05,1e-06,16
2541,9.9e-05,8e-06,16
2542,8.6e-05,7e-06,16
2543,8.8e-05,1e-05,16
2544,9.6e-05,4e-06,16
2545,7.8e-05,6e-06,16
2546,8.9e-05,8e-06,16
2547,8.3e-05,2e-06,16
2548,7.8e-05,3e-06,16
2549,9e-05,0.0,16
2550,8.6e-05,7e-06,16
2551,0.000118,4e-06,16
2552,7.8e-05,4e-06,16
2553,8.6e-05,5e-06,16
2554,7.8e-05,4e-06,16
2555,8.4e-05,5e-06,16
2556,7.5e-05,2e-06,16
2557,6.8e-05,4e-06,16
2558,9e-05,6e-06,16
2559,8.6e-05,4e-06,16
2560,9.1e-05,2e-06,16
2561,9.9e-05,6e-06,16
2562,9.5e-05,1e-05,16
2563,7e-05,6e-06,16
2564,6.6e-05,1e-05,16
2565,8.3e-05,8e-06,16
2566,8.7e-05,8e-06,16
2567,9e-05,1.1e-05,16
2568,9.3e-05,5e-06,16
2569,9.5e-05,1e-06,16
2570,7.4e-05,1e-06,16
2571,7.1e-05,6e-06,16
2572,8.5e-05,0.0,16
2573,6.9e-05,4e-06,16
2574,0.000115,1e-06,16
2575,8.9e-05,1e-05,16
2576,9.3e-05,4e-06,16
2577,6e-05,1e-06,16
2578,7.8e-05,4e-06,16
2579,8.5e-05,5e-06,16
2580,8.6e-05,1e-06,16
2581,9.7e-05,3e-06,16
2582,8.4e-05,7e-06,16
2583,0.000104,0.0,16
2584,7.7e-05,5e-06,16
2585,8.7e-05,5e-06,16
2586,0.000146,5e-06,16
2587,7.2e-05,6e-06,16
2588,8.6e-05,1e-05,16
2589,8.7e-05,8e-06,16
2590,5.9e-05,8e-06,16
2591,9e-05,1e-05,16
2592,7.6e-05,5e-06,16
2593,8.1e-05,6e-06,16
2594,9.5e-05,1e-05,16
2595,8.5e-05,4e-06,16
2596,8.6e-05,0.0,16
2597,9.6e-05,3e-06,16
2598,5.9e-05,8e-06,16
2599,9.1e-05,1.1e-05,16
2600,9.4e-05,1.7e-05,16
2601,8.7e-05,4e-06,16
2602,7.3e-05,1e-06,16
2603,5.9e-05,4e-06,16
2604,8.6e-05,1e-05,16
2605,9e-05,0.0,16
2606,8.4e-05,9e-06,16
2607,7.3e-05,1e-05,16
2608,9.3e-05,4e-06,16
2609,8.8e-05,4e-06,16
2610,7.3e-05,1e-06,16
2611,9e-05,6e-06,16
2612,8.6e-05,0.0,16
2613,6.9e-05,4e-06,16
2614,5.9e-05,8e-06,16
2615,8.9e-05,1.1e-05,16
2616,7.4e-05,5e-06,16
2617,8.8e-05,4e-06,16
2618,7.8e-05,4e-06,16
2619,5.8e-05,5e-06,16
2620,0.000104,2e-06,16
2621,9.2e-05,1e-05,16
2622,8.5e-05,4e-06,16
2623,7.3e-05,1e-05,16
2624,7.4e-05,5e-06,16
2625,9.2e-05,1e-06,16
2626,9.6e-05,1e-05,16
2627,5.8e-05,5e-06,16
2628,7.2e-05,9e-06,16
2629,0.000102,8e-06,16
2630,8.4e-05,9e-06,16
2631,9.3e-05,1e-06,16
2632,7.9e-05,4e-06,16
2633,8.6e-05,2e-06,16
2634,8.9e-05,1.1e-05,16
2635,5.9e-05,5e-06,16
2636,9.1e-05,0.0,16
2637,8.9e-05,0.0,16
2638,5.9e-05,8e-06,16
2639,8.7e-05,6e-06,16
2640,9.4e-05,1.7e-05,16
2641,8.6e-05,1e-06,16
2642,9e-05,1.1e-05,16
2643,7.3e-05,5e-06,16
2644,8.5e-05,1e-06,16
2645,9e-05,3e-06,16
2646,8.4e-05,7e-06,16
2647,8.8e-05,6e-06,16
2648,8.8e-05,2e-06,16
2649,7.8e-05,9e-06,16
2650,7.8e-05,4e-06,16
2651,9.3e-05,0.0,16
2652,8.6e-05,0.0,16
2653,0.000103,7e-06,16
2654,8.5e-05,9e-06,16
2655,0.000112,1e-05,16
2656,7e-05,5e-06,16
2657,8.7e-05,1e-06,16
2658,9e-05,1e-05,16
2659,9e-05,6e-06,16
2660,7.2e-05,9e-06,16
2661,8.5e-05,2e-06,16
2662,8.7e-05,1.2e-05,16
2663,8.9e-05,1.1e-05,16
2664,8.3e-05,0.0,16
2665,8.2e-05,6e-06,16
2666,8.2e-05,8e-06,16
2667,9e-05,5e-06,16
2668,7.8e-05,4e-06,16
2669,0.000101,3e-06,16
2670,8.5e-05,9e-06,16
2671,0.000107,2e-06,16
2672,9.4e-05,1.7e-05,16
2673,7.9e-05,6e-06,16
2674,8.7e-05,0.0,16
2675,8.7e-05,5e-06,16
2676,7.4e-05,2e-06,16
2677,8.9e-05,9e-06,16
2678,8.3e-05,5e-06,16
2679,9e-05,1.1e-05,16
2680,9.4e-05,4e-06,16
2681,7.9e-05,8e-06,16
2682,9e-05,1e-05,16
2683,7.4e-05,6e-06,16
2684,9.2e-05,0.0,16
2685,9.2e-05,1e-05,16
2686,6.9e-05,1.3e-05,16
2687,8.9e-05,7e-06,16
2688,9.4e-05,4e-06,16
2689,0.000117,2e-06,16
2690,6.3e-05,3e-06,16
2691,7.4e-05,6e-06,16
2692,8.6e-05,1e-05,16
2693,0.000103,7e-06,16
2694,8.5e-05,4e-06,16
2695,9.8e-05,7e-06,16
2696,9.4e-05,1.7e-05,16
2697,7.9e-05,7e-06,16
2698,9.4e-05,8e-06,16
2699,5.9e-05,6e-06,16
2700,8.6e-05,1e-05,16
2701,9.6e-05,2e-06,16
2702,8.5e-05,9e-06,16
2703,9.1e-05,1.1e-05,16
2704,9.4e-05,1.7e-05,16
2705,6e-05,2e-06,16
2706,9.6e-05,1e-05,16
2707,8.7e-05,5e-06,16
2708,8.6e-05,1e-05,16
2709,9e-05,9e-06,16
2710,5.9e-05,8e-06,16
2711,0.000116,1e-06,16
2712,9.4e-05,1.7e-05,16
2713,8.2e-05,5e-06,16
2714,9.4e-05,2e-06,16
2715,8.5e-05,5e-06,16
2716,8.6e-05,1e-05,16
2717,9.1e-05,0.0,16
2718,8.5e-05,9e-06,16
2719,0.000113,9e-06,16
2720,7.5e-05,5e-06,16
2721,9.9e-05,6e-06,16
2722,9e-05,1e-05,16
2723,9e-05,5e-06,16
2724,0.000104,2e-06,16
2725,8.5e-05,2e-06,16
2726,7.2e-05,3e-06,16
2727,7.3e-05,9e-06,16
2728,7.6e-05,0.0,16
2729,9.6e-05,1e-06,16
2730,7.9e-05,4e-06,16
2731,0.000121,2e-06,16
2732,9.2e-05,0.0,16
2733,9.1e-05,3e-06,16
2734,8.5e-05,9e-06,16
2735,9.3e-05,1e-06,16
2736,8.3e-05,1e-06,16
2737,9.4e-05,6e-06,16
2738,7.7e-05,1e-06,16
2739,0.000113,8e-06,16
2740,8e-05,4e-06,16
2741,9e-05,2e-06,16
2742,6.9e-05,1.3e-05,16
2743,0.000118,1e-06,16
2744,7.5e-05,4e-06,16
2745,8.7e-05,5e-06,16
2746,8.8e-05,8e-06,16
2747,8.6e-05,5e-06,16
2748,8e-05,4e-06,16
2749,8.5e-05,2e-06,16
2750,8.8e-05,9e-06,16
2751,0.000118,1e-06,16
2752,7.5e-05,4e-06,16
2753,8e-05,6e-06,16
2754,9e-05,1e-05,16
2755,5.9e-05,6e-06,16
2756,7.2e-05,9e-06,16
2757,0.000103,3e-06,16
2758,8.5e-05,9e-06,16
2759,0.000114,8e-06,16
2760,9.4e-05,4e-06,16
2761,0.000117,2e-06,16
2762,9.4e-05,3e-06,16
2763,7.4e-05,5e-06,16
2764,7.8e-05,4e-06,16
2765,9.1e-05,2e-06,16
2766,8.8e-05,1.2e-05,16
2767,8.9e-05,1.1e-05,16
2768,0.000107,1e-06,16
2769,9.4e-05,6e-06,16
2770,8.8e-05,0.0,16
2771,8.7e-05,5e-06,16
2772,7.2e-05,9e-06,16
2773,7.1e-05,1e-05,16
2774,9.1e-05,5e-06,16
2775,0.000119,2e-06,16
2776,8.3e-05,1e-06,16
2777,0.000117,2e-06,16
2778,9.4e-05,8e-06,16
2779,0.000102,0.0,16
2780,7.5e-05,2e-06,16
2781,0.000101,1e-05,16
2782,8.5e-05,3e-06,16
2783,0.000114,8e-06,16
2784,8.8e-05,2e-06,16
2785,8.8e-05,1e-06,16
2786,9.4e-05,8e-06,16
2787,8.6e-05,5e-06,16
2788,8.1e-05,4e-06,16
2789,9.1e-05,3e-06,16
2790,8.5e-05,8e-06,16
2791,9.1e-05,1e-05,16
2792,9.8e-05,3e-06,16
2793,6e-05,3e-06,16
2794,6.3e-05,3e-06,16
2795,9.3e-05,0.0,16
2796,8.6e-05,0.0,16
2797,9.1e-05,9e-06,16
2798,8.4e-05,7e-06,16
2799,9e-05,8e-06,16
2800,7.5e-05,5e-06,16
2801,9.9e-05,6e-06,16
2802,9.4e-05,3e-06,16
2803,5.9e-05,6e-06,16
2804,5.7e-05,1e-06,16
2805,9.2e-05,1e-05,16
2806,0.000117,3e-06,16
2807,9.4e-05,1e-06,16
2808,7.9e-05,3e-06,16
2809,0.000117,2e-06,16
2810,8.4e-05,7e-06,16
2811,8.9e-05,4e-06,16
2812,8.6e-05,0.0,16
2813,0.000101,1e-05,16
2814,8.4e-05,7e-06,16
2815,9e-05,8e-06,16
2816,8.8e-05,2e-06,16
2817,0.000117,2e-06,16
2818,8.7e-05,8e-06,16
2819,8.6e-05,5e-06,16
2820,5.7e-05,1e-06,16
2821,9.1e-05,3e-06,16
2822,8.7e-05,1.3e-05,16
2823,9.4e-05,1e-06,16
2824,0.000107,1e-06,16
2825,8.8e-05,1e-06,16
2826,8.9e-05,1e-06,16
2827,8.7e-05,5e-06,16
2828,7.2e-05,4e-06,16
2829,7e-05,4e-06,16
2830,7.2e-05,3e-06,16
2831,7.3e-05,9e-06,16
2832,7.1e-05,5e-06,16
2833,9.5e-05,1e-06,16
2834,8.4e-05,7e-06,16
2835,9.8e-05,2e-06,16
2836,8.6e-05,1e-05,16
2837,0.000104,4e-06,16
2838,8.7e-05,2e-06,16
2839,0.0001,7e-06,16
2840,9.5e-05,1.7e-05,16
2841,9.5e-05,1e-06,16
2842,9.6e-05,1e-05,16
2843,8.6e-05,5e-06,16
2844,8.1e-05,4e-06,16
2845,8.5e-05,2e-06,16
2846,6.9e-05,1.3e-05,16
2847,9.1e-05,1e-05,16
2848,9.9e-05,4e-06,16
2849,8.8e-05,5e-06,16
2850,0.000146,3e-06,16
2851,8.7e-05,5e-06,16
2852,9.2e-05,0.0,16
2853,9.1e-05,3e-06,16
2854,5.9e-05,7e-06,16
2855,0.000117,1e-06,16
2856,0.000107,1e-06,16
2857,8.8e-05,5e-06,16
2858,8.4e-05,7e-06,16
2859,8.7e-05,5e-06,16
2860,6.5e-05,1.2e-05,16
2861,8.5e-05,2e-06,16
2862,8.5e-05,3e-06,16
2863,0.000107,3e-06,16
2864,9.9e-05,4e-06,16
2865,9.5e-05,7e-06,16
2866,7.6e-05,1e-06,16
2867,0.000114,8e-06,16
2868,8.2e-05,4e-06,16
2869,9.2e-05,1e-05,16
2870,8.4e-05,7e-06,16
2871,9.1e-05,8e-06,16
2872,7.5e-05,3e-06,16
2873,9e-05,3e-06,16
2874,0.000146,3e-06,16
2875,8.6e-05,5e-06,16
2876,5.7e-05,1e-06,16
2877,7e-05,4e-06,16
2878,6.9e-05,1.3e-05,16
2879,9.1e-05,1e-05,16
2880,7.5e-05,5e-06,16
2881,9.5e-05,7e-06,16
2882,7.4e-05,1e-06,16
2883,9e-05,5e-06,16
2884,6.5e-05,1.2e-05,16
2885,0.000104,4e-06,16
2886,6.9e-05,1.3e-05,16
2887,9.4e-05,1e-06,16
2888,7.5e-05,0.0,16
2889,9.5e-05,7e-06,16
2890,9.7e-05,1e-05,16
2891,9e-05,4e-06,16
2892,8.6e-05,1e-06,16
2893,7e-05,4e-06,16
2894,6.9e-05,1.3e-05,16
2895,7.3e-05,9e-06,16
2896,7.5e-05,5e-06,16
2897,9.5e-05,7e-06,16
2898,7.7e-05,1e-06,16
2899,8.9e-05,5e-06,16
2900,8.6e-05,0.0,16
2901,9.2e-05,1e-05,16
2902,8.8e-05,9e-06,16
2903,0.000122,4e-06,16
2904,7.1e-05,5e-06,16
2905,6e-05,3e-06,16
2906,7.4e-05,1e-06,16
2907,8.6e-05,5e-06,16
2908,8.7e-05,1e-05,16
2909,9.1e-05,3e-06,16
2910,8.6e-05,3e-06,16
2911,7.3e-05,9e-06,16
2912,8.8e-05,2e-06,16
2913,9e-05,3e-06,16
2914,9.4e-05,3e-06,16
2915,8.7e-05,4e-06,16
2916,7.2e-05,9e-06,16
2917,0.000102,1e-05,16
2918,7.2e-05,3e-06,16
2919,9.2e-05,1.1e-05,16
2920,9.4e-05,4e-06,16
2921,8.2e-05,5e-06,16
2922,8.8e-05,1e-06,16
2923,8.6e-05,5e-06,16
2924,7.8e-05,4e-06,16
2925,9.2e-05,3e-06,16
2926,8.8e-05,1.2e-05,16
2927,0.000107,3e-06,16
2928,8e-05,3e-06,16
2929,8.8e-05,1e-06,16
2930,7.4e-05,1e-06,16
2931,8.6e-05,5e-06,16
2932,6.5e-05,1.2e-05,16
2933,7.2e-05,1e-05,16
2934,8.4e-05,4e-06,16
2935,7.3e-05,9e-06,16
2936,9.5e-05,1.7e-05,16
2937,8.8e-05,5e-06,16
2938,7.4e-05,1e-06,16
2939,9.3e-05,0.0,16
2940,0.000104,2e-06,16
2941,9.2e-05,1e-05,16
2942,0.000117,3e-06,16
2943,0.000118,0.0,16
2944,7.5e-05,3e-06,16
2945,9.5e-05,1e-06,16
2946,7.7e-05,1e-06,16
2947,9.3e-05,0.0,16
2948,8.2e-05,4e-06,16
2949,7e-05,4e-06,16
2950,8.9e-05,1e-05,16
2951,0.000114,7e-06,16
2952,0.000107,1e-06,16
2953,9.2e-05,1e-06,16
2954,9.4e-05,8e-06,16
2955,0.000122,1e-06,16
2956,5.7e-05,1e-06,16
2957,9.2e-05,1e-05,16
2958,8.6e-05,3e-06,16
2959,9.1e-05,8e-06,16
2960,7.5e-05,3e-06,16
2961,9e-05,3e-06,16
2962,9.1e-05,1e-05,16
2963,7.5e-05,5e-06,16
2964,7.2e-05,4e-06,16
2965,0.000103,5e-06,16
2966,8.4e-05,4e-06,16
2967,9.5e-05,1e-06,16
2968,8e-05,3e-06,16
2969,8.1e-05,6e-06,16
2970,0.000146,3e-06,16
2971,8.6e-05,5e-06,16
2972,8.6e-05,1e-06,16
2973,9.7e-05,2e-06,16
2974,8.6e-05,3e-06,16
2975,9.1e-05,1e-05,16
2976,0.0001,5e-06,16
2977,8.2e-05,5e-06,16
2978,9.7e-05,1e-05,16
2979,9.9e-05,2e-06,16
2980,6.5e-05,1.2e-05,16
2981,9.1e-05,1e-06,16
2982,8.5e-05,8e-06,16
2983,0.000107,3e-06,16
2984,7.5e-05,5e-06,16
2985,9e-05,3e-06,16
2986,7.7e-05,1e-06,16
2987,0.000102,1e-06,16
2988,6.5e-05,1.2e-05,16
2989,7.2e-05,1e-05,16
2990,6e-05,7e-06,16
2991,9e-05,1.1e-05,16
2992,7.5e-05,0.0,16
2993,8.1e-05,6e-06,16
2994,9.4e-05,3e-06,16
2995,8.8e-05,5e-06,16
2996,6.5e-05,1.2e-05,16
2997,7e-05,4e-06,16
2998,9.2e-05,5e-06,16
2999,9.5e-05,1e-06,16
