kernel_id,importance_raw,importance_coral,change,change_pct,dilation
0,8.7e-05,9e-05,3e-06,3.02,1
1,6.5e-05,8.3e-05,1.9e-05,29.09,1
2,7.6e-05,7.6e-05,-0.0,-0.39,1
3,0.000109,0.000117,7e-06,6.73,1
4,8.3e-05,0.000101,1.7e-05,20.64,1
5,0.000118,0.00012,2e-06,1.82,1
6,0.000115,9.4e-05,-2.1e-05,-18.09,1
7,0.000172,0.000117,-5.5e-05,-31.88,1
8,8.7e-05,8.8e-05,0.0,0.47,1
9,7.4e-05,7.2e-05,-3e-06,-3.66,1
10,7.6e-05,7.2e-05,-4e-06,-5.45,1
11,0.000109,0.000117,7e-06,6.76,1
12,8.3e-05,9.6e-05,1.3e-05,15.3,1
13,9.7e-05,0.000105,8e-06,7.82,1
14,0.000157,0.00015,-6e-06,-3.97,1
15,0.000252,0.000213,-3.9e-05,-15.47,1
16,7.3e-05,7.3e-05,-0.0,-0.57,1
17,7e-05,9.5e-05,2.5e-05,35.34,1
18,6.4e-05,7.3e-05,9e-06,14.01,1
19,0.00013,0.000113,-1.7e-05,-12.77,1
20,8.7e-05,9.2e-05,5e-06,6.04,1
21,0.000126,0.0001,-2.6e-05,-20.62,1
22,0.000152,0.000146,-6e-06,-3.82,1
23,0.000158,0.000138,-2e-05,-12.41,1
24,6.4e-05,8.3e-05,1.9e-05,29.15,1
25,5.7e-05,6.2e-05,5e-06,9.1,1
26,7.3e-05,8.5e-05,1.2e-05,16.09,1
27,0.000136,0.000124,-1.2e-05,-8.88,1
28,7.2e-05,8.1e-05,8e-06,11.47,1
29,0.000133,0.00014,7e-06,5.01,1
30,0.00013,0.000122,-8e-06,-6.3,1
31,0.000179,0.000148,-3e-05,-16.99,1
32,6.9e-05,7.6e-05,7e-06,10.4,1
33,7.4e-05,7.1e-05,-3e-06,-3.97,1
34,7.6e-05,7.5e-05,-1e-06,-1.03,1
35,9.2e-05,8.7e-05,-5e-06,-5.09,1
36,9.5e-05,9e-05,-5e-06,-4.91,1
37,0.000126,0.000127,1e-06,0.84,1
38,0.000116,0.000108,-8e-06,-7.26,1
39,0.000156,0.000125,-3.1e-05,-19.82,1
40,8.7e-05,8.7e-05,0.0,0.09,1
41,6.5e-05,6.9e-05,5e-06,7.46,1
42,9.1e-05,9.3e-05,1e-06,1.53,1
43,9.9e-05,0.000102,3e-06,3.18,1
44,8.3e-05,9.2e-05,9e-06,10.51,1
45,0.000101,0.000105,4e-06,3.92,1
46,0.000132,0.000128,-4e-06,-3.26,1
47,0.000232,0.000208,-2.4e-05,-10.33,1
48,7.7e-05,7.3e-05,-4e-06,-5.81,1
49,8.1e-05,8.3e-05,2e-06,2.38,1
50,8.7e-05,8.7e-05,1e-06,0.63,1
51,9.2e-05,9.9e-05,7e-06,8.03,1
52,9.3e-05,9.3e-05,0.0,0.24,1
53,0.000126,0.000128,2e-06,1.41,1
54,0.000125,0.000119,-6e-06,-4.46,1
55,0.000172,0.000157,-1.5e-05,-8.63,1
56,7.7e-05,7.6e-05,-2e-06,-2.27,1
57,8.8e-05,9.2e-05,4e-06,4.12,1
58,6.4e-05,7e-05,6e-06,9.02,1
59,0.00013,0.000127,-3e-06,-2.24,1
60,7.8e-05,7.6e-05,-2e-06,-1.99,1
61,0.000126,0.000128,2e-06,1.52,1
62,0.00013,0.000133,3e-06,2.55,1
63,0.000181,0.000175,-6e-06,-3.33,1
64,6.4e-05,7.7e-05,1.3e-05,20.3,1
65,9.9e-05,9.7e-05,-2e-06,-2.42,1
66,8e-05,7.9e-05,-1e-06,-0.9,1
67,8.4e-05,9.2e-05,8e-06,9.21,1
68,7.8e-05,7.7e-05,-1e-06,-0.82,1
69,0.000113,0.000117,4e-06,3.5,1
70,0.000157,0.000155,-1e-06,-0.85,1
71,0.000183,0.000163,-2e-05,-11.18,1
72,7.1e-05,6.8e-05,-3e-06,-4.53,1
73,7e-05,6.9e-05,-1e-06,-2.06,1
74,8.3e-05,7.9e-05,-4e-06,-4.62,1
75,9.2e-05,8.9e-05,-3e-06,-3.37,1
76,7.8e-05,7.7e-05,-0.0,-0.09,1
77,0.000133,0.000143,1e-05,7.59,1
78,0.000125,0.000123,-2e-06,-1.5,1
79,0.000172,0.000169,-3e-06,-1.73,1
80,6.4e-05,7.4e-05,1e-05,15.57,1
81,8e-05,8.5e-05,5e-06,6.71,1
82,8.1e-05,8.7e-05,5e-06,6.77,1
83,9.2e-05,9.9e-05,7e-06,8.12,1
84,8.7e-05,9.1e-05,5e-06,5.25,1
85,0.000118,0.000124,6e-06,4.76,1
86,0.00013,0.000133,3e-06,2.43,1
87,0.000179,0.000172,-7e-06,-3.71,1
88,8.1e-05,7.6e-05,-5e-06,-5.82,1
89,5.7e-05,6e-05,3e-06,5.47,1
90,8.7e-05,8.6e-05,-1e-06,-1.19,1
91,8.1e-05,9e-05,9e-06,11.31,1
92,8.7e-05,9.1e-05,4e-06,5.17,1
93,8.4e-05,8.9e-05,4e-06,5.12,1
94,0.000138,0.000136,-2e-06,-1.55,1
95,0.000156,0.000136,-2e-05,-13.07,1
96,6.4e-05,7.2e-05,8e-06,11.77,1
97,7.7e-05,8.3e-05,6e-06,8.44,1
98,9.1e-05,9.7e-05,6e-06,6.25,1
99,8.4e-05,8.8e-05,4e-06,4.39,1
100,9.3e-05,9.4e-05,1e-06,1.1,1
101,0.000118,0.000122,4e-06,3.78,1
102,0.000138,0.000137,-1e-06,-0.78,1
103,0.000252,0.000232,-2e-05,-7.97,1
104,6.9e-05,7.1e-05,2e-06,3.19,1
105,7.7e-05,8.3e-05,6e-06,7.95,1
106,9.1e-05,9.5e-05,4e-06,4.71,1
107,0.000109,0.000118,8e-06,7.59,1
108,9.9e-05,0.000102,4e-06,3.64,1
109,0.000101,0.000106,5e-06,4.86,1
110,0.000102,8.4e-05,-1.8e-05,-17.31,1
111,0.000252,0.000239,-1.3e-05,-5.24,1
112,7.3e-05,7.2e-05,-1e-06,-1.26,1
113,7.7e-05,7.9e-05,2e-06,1.96,1
114,7.3e-05,7.6e-05,3e-06,4.02,1
115,9.8e-05,0.000101,3e-06,3.33,1
116,8.3e-05,9e-05,7e-06,7.87,1
117,8.4e-05,8.9e-05,5e-06,5.55,1
118,0.000132,0.000127,-5e-06,-3.84,1
119,0.000172,0.000173,2e-06,0.96,1
120,7.7e-05,7.6e-05,-1e-06,-1.32,1
121,7.7e-05,8.2e-05,5e-06,6.82,1
122,8.9e-05,9.2e-05,3e-06,3.69,1
123,0.000116,0.00012,3e-06,2.74,1
124,8.7e-05,9.1e-05,4e-06,4.59,1
125,0.000126,0.000126,-0.0,-0.08,1
126,0.000125,0.000124,-1e-06,-0.67,1
127,0.000152,0.000134,-1.8e-05,-11.6,1
128,8.7e-05,8.7e-05,-1e-06,-0.68,1
129,8.1e-05,8.2e-05,0.0,0.43,1
130,9.1e-05,9.4e-05,3e-06,3.12,1
131,8.1e-05,8.7e-05,6e-06,7.88,1
132,8.4e-05,8.5e-05,1e-06,1.47,1
133,0.000126,0.000127,0.0,0.34,1
134,0.000157,0.000157,-0.0,-0.04,1
135,0.000201,0.000193,-8e-06,-3.98,1
136,8.4e-05,8.2e-05,-2e-06,-2.57,1
137,7.7e-05,7.9e-05,2e-06,2.14,1
138,7.3e-05,7.6e-05,3e-06,4.04,1
139,9.9e-05,0.000106,7e-06,7.11,1
140,8.3e-05,8.9e-05,6e-06,6.68,1
141,0.000101,0.000108,6e-06,6.39,1
142,0.000102,9.5e-05,-6e-06,-6.08,1
143,0.000232,0.000221,-1.1e-05,-4.72,1
144,8.2e-05,8.1e-05,-1e-06,-1.01,1
145,8.1e-05,8.2e-05,0.0,0.58,1
146,8.9e-05,9.1e-05,3e-06,3.02,1
147,9.8e-05,0.000102,4e-06,4.42,1
148,9.3e-05,9.4e-05,1e-06,1.25,1
149,8.4e-05,8.9e-05,5e-06,5.77,1
150,0.000115,0.000117,1e-06,1.3,1
151,0.000156,0.000142,-1.4e-05,-8.87,1
152,7.3e-05,7.4e-05,0.0,0.54,1
153,8.1e-05,8.1e-05,0.0,0.23,1
154,7.3e-05,7.6e-05,3e-06,4.04,1
155,9.2e-05,9.8e-05,6e-06,6.93,1
156,7.8e-05,7.7e-05,-1e-06,-0.77,1
157,0.000114,0.000114,-0.0,-0.14,1
158,0.000132,0.000128,-4e-06,-3.04,1
159,0.000181,0.000178,-3e-06,-1.74,1
160,8.4e-05,8.4e-05,-1e-06,-0.76,1
161,6.5e-05,7e-05,6e-06,8.55,1
162,8.9e-05,9.1e-05,2e-06,2.68,1
163,9.8e-05,0.000103,5e-06,4.85,1
164,8.4e-05,8.6e-05,2e-06,2.16,1
165,0.000133,0.000141,8e-06,6.16,1
166,0.00013,0.000135,5e-06,3.73,1
167,0.000158,0.000151,-7e-06,-4.19,1
168,8.2e-05,8.2e-05,-0.0,-0.19,1
169,8.2e-05,7.9e-05,-3e-06,-3.26,1
170,6.4e-05,6.7e-05,3e-06,5.21,1
171,0.000116,0.000115,-1e-06,-0.84,1
172,9.5e-05,9e-05,-5e-06,-5.53,1
173,0.000126,0.000128,1e-06,0.89,1
174,0.00013,0.000135,5e-06,3.95,1
175,0.000156,0.000146,-1e-05,-6.45,1
176,6.6e-05,7.9e-05,1.2e-05,18.45,1
177,7.4e-05,7.9e-05,5e-06,6.76,1
178,8.1e-05,8.7e-05,6e-06,7.72,1
179,0.000107,0.000112,5e-06,4.52,1
180,9.5e-05,9e-05,-4e-06,-4.58,1
181,0.000125,0.000128,3e-06,2.61,1
182,0.000132,0.000128,-4e-06,-2.85,1
183,0.000152,0.000144,-8e-06,-5.28,1
184,6.9e-05,7.1e-05,1e-06,1.94,1
185,8.2e-05,8e-05,-2e-06,-2.08,1
186,7.6e-05,8e-05,4e-06,4.78,1
187,0.000116,0.00012,3e-06,2.89,1
188,7.8e-05,7.7e-05,-1e-06,-0.96,1
189,0.000125,0.000128,3e-06,2.29,1
190,0.000116,0.000114,-2e-06,-1.56,1
191,0.000181,0.00018,-1e-06,-0.67,1
192,8.6e-05,8.4e-05,-1e-06,-1.55,1
193,9.9e-05,9.9e-05,-0.0,-0.38,1
194,7.6e-05,8e-05,4e-06,5.24,1
195,0.000116,0.00012,4e-06,3.07,1
196,8.3e-05,8.9e-05,5e-06,6.44,1
197,7.9e-05,8e-05,0.0,0.61,1
198,0.000116,0.000115,-1e-06,-0.87,1
199,0.000172,0.000178,6e-06,3.56,1
200,6.4e-05,6.8e-05,4e-06,5.62,1
201,9.9e-05,9.9e-05,0.0,0.21,1
202,7.6e-05,8e-05,4e-06,5.59,1
203,0.000116,0.000117,1e-06,0.69,1
204,8.7e-05,9.1e-05,4e-06,4.49,1
205,0.000125,0.000128,3e-06,2.08,1
206,0.000123,0.000117,-5e-06,-4.29,1
207,0.000152,0.000148,-4e-06,-2.56,1
208,6.9e-05,7.1e-05,1e-06,1.97,1
209,8.8e-05,9.5e-05,7e-06,7.42,1
210,6.6e-05,7.4e-05,8e-06,11.55,1
211,0.000136,0.000127,-9e-06,-6.47,1
212,0.000102,9.7e-05,-4e-06,-4.37,1
213,0.000113,0.000116,4e-06,3.37,1
214,0.000116,0.000116,-0.0,-0.3,1
215,0.000152,0.00015,-2e-06,-1.13,1
216,7e-05,7.1e-05,0.0,0.2,1
217,7.8e-05,7e-05,-8e-06,-10.77,1
218,9.1e-05,9.4e-05,3e-06,3.66,1
219,8.4e-05,8.6e-05,2e-06,2.24,1
220,9.9e-05,0.000106,7e-06,7.39,1
221,7.9e-05,7.9e-05,0.0,0.29,1
222,0.000125,0.000126,1e-06,0.67,1
223,0.000158,0.000154,-4e-06,-2.31,1
224,6.4e-05,6.8e-05,3e-06,5.25,1
225,7e-05,7e-05,-1e-06,-0.8,1
226,8.9e-05,9.1e-05,2e-06,2.25,1
227,8.1e-05,8.6e-05,5e-06,6.6,1
228,7.3e-05,7.1e-05,-2e-06,-2.24,1
229,7.9e-05,7.9e-05,-0.0,-0.35,1
230,0.000116,0.000116,0.0,0.01,1
231,0.000158,0.000155,-2e-06,-1.48,1
232,7e-05,7.1e-05,0.0,0.52,1
233,7.7e-05,8.2e-05,5e-06,6.99,1
234,8.1e-05,8.6e-05,5e-06,6.11,1
235,0.000116,0.000118,2e-06,1.45,1
236,0.000102,9.8e-05,-4e-06,-3.92,1
237,9.7e-05,9.7e-05,-0.0,-0.11,1
238,0.000132,0.000129,-3e-06,-2.21,1
239,0.000324,0.000255,-6.9e-05,-21.35,1
240,8.1e-05,7.7e-05,-4e-06,-4.98,1
241,7.4e-05,7.9e-05,5e-06,6.95,1
242,7.3e-05,7.7e-05,3e-06,4.66,1
243,0.000116,0.000118,2e-06,1.7,1
244,8.7e-05,9.1e-05,4e-06,4.63,1
245,0.000114,0.000114,-1e-06,-0.52,1
246,0.000123,0.00012,-3e-06,-2.34,1
247,0.000158,0.000156,-1e-06,-0.84,1
248,8.6e-05,8.4e-05,-2e-06,-1.85,1
249,7e-05,7.1e-05,0.0,0.63,1
250,7.6e-05,8.1e-05,5e-06,6.26,1
251,8.4e-05,8.6e-05,2e-06,2.28,1
252,9.3e-05,9.5e-05,2e-06,2.4,1
253,0.000126,0.000128,2e-06,1.61,1
254,0.000179,0.00018,1e-06,0.4,1
255,0.000201,0.000203,2e-06,0.87,1
256,7.3e-05,7.4e-05,1e-06,1.85,1
257,6.5e-05,6.8e-05,4e-06,5.91,1
258,8.7e-05,8.7e-05,0.0,0.23,1
259,9.8e-05,0.000104,6e-06,5.86,1
260,7.8e-05,7.7e-05,-0.0,-0.62,1
261,0.000101,0.000108,7e-06,6.42,1
262,0.000115,0.000117,2e-06,1.99,1
263,0.000172,0.000161,-1.1e-05,-6.25,1
264,7.3e-05,7.5e-05,1e-06,1.96,1
265,6.5e-05,6.8e-05,4e-06,5.55,1
266,8.9e-05,9.1e-05,2e-06,2.27,1
267,9.2e-05,9.7e-05,5e-06,5.89,1
268,9.3e-05,9.5e-05,2e-06,2.31,1
269,7.9e-05,7.8e-05,-1e-06,-1.15,1
270,0.000157,0.000157,0.0,0.03,1
271,0.000181,0.000181,-0.0,-0.02,1
272,7.1e-05,6.9e-05,-3e-06,-3.71,1
273,9.9e-05,0.0001,1e-06,0.62,1
274,7.3e-05,7.7e-05,3e-06,4.45,1
275,9.8e-05,0.000104,6e-06,5.89,1
276,9.5e-05,9.2e-05,-3e-06,-3.45,1
277,0.000125,0.000128,3e-06,2.31,1
278,0.000138,0.000136,-2e-06,-1.15,1
279,0.000158,0.000157,-1e-06,-0.37,1
280,8.7e-05,8.6e-05,-1e-06,-0.9,1
281,8.8e-05,9.4e-05,6e-06,6.84,1
282,8e-05,8.2e-05,2e-06,2.45,1
283,0.000107,0.000112,5e-06,5.13,1
284,9.5e-05,9.2e-05,-3e-06,-2.91,1
285,8.4e-05,8.9e-05,4e-06,5.19,1
286,0.000138,0.000137,-1e-06,-0.75,1
287,0.000183,0.000171,-1.2e-05,-6.66,1
288,6.4e-05,6.8e-05,3e-06,5.04,1
289,7.8e-05,7.1e-05,-7e-06,-8.82,1
290,8.7e-05,8.6e-05,-1e-06,-0.63,1
291,8.4e-05,8.5e-05,2e-06,1.84,1
292,9.5e-05,9.2e-05,-2e-06,-2.59,1
293,0.000114,0.000115,0.0,0.24,1
294,0.000145,0.000146,0.0,0.12,1
295,0.000324,0.000294,-3.1e-05,-9.45,1
296,8.7e-05,8.7e-05,-1e-06,-0.83,1
297,8.2e-05,8.2e-05,-0.0,-0.4,1
298,9.1e-05,9.8e-05,7e-06,7.77,1
299,9.9e-05,0.000106,8e-06,7.64,1
300,8.4e-05,8.7e-05,3e-06,3.73,1
301,0.000101,0.000108,6e-06,6.4,1
302,0.000123,0.000122,-1e-06,-0.71,1
303,0.000252,0.000244,-8e-06,-3.07,1
304,8.6e-05,8.4e-05,-1e-06,-1.67,1
305,9.9e-05,0.0001,1e-06,0.73,1
306,7.3e-05,7.7e-05,4e-06,4.79,1
307,0.000109,0.000117,7e-06,6.77,1
308,7.8e-05,7.7e-05,-0.0,-0.56,1
309,0.000134,0.000137,3e-06,2.32,1
310,0.000102,0.000101,-0.0,-0.19,1
311,0.000252,0.000247,-5e-06,-2.07,1
312,6.6e-05,7.7e-05,1.1e-05,16.05,1
313,7e-05,7.1e-05,1e-06,1.34,1
314,9.1e-05,9.5e-05,4e-06,4.06,1
315,9.2e-05,9.7e-05,5e-06,5.42,1
316,8.4e-05,8.7e-05,3e-06,3.87,1
317,0.000125,0.000128,3e-06,2.39,1
318,0.000116,0.000117,1e-06,0.49,1
319,0.000179,0.000174,-5e-06,-2.8,1
320,7.1e-05,7e-05,-2e-06,-2.32,1
321,8e-05,8.6e-05,6e-06,7.35,1
322,8.7e-05,8.6e-05,-0.0,-0.18,1
323,0.000116,0.000119,3e-06,2.16,1
324,8.4e-05,8.7e-05,3e-06,4.06,1
325,0.000125,0.000128,3e-06,2.49,1
326,0.000123,0.000123,-0.0,-0.02,1
327,0.000152,0.000153,2e-06,0.99,1
328,6.6e-05,7.6e-05,9e-06,14.25,1
329,7.8e-05,7.3e-05,-5e-06,-6.75,1
330,6.4e-05,6.6e-05,2e-06,3.71,1
331,9.2e-05,9.6e-05,4e-06,4.78,1
332,8.7e-05,9.1e-05,4e-06,4.31,1
333,0.000112,0.000112,1e-06,0.47,1
334,0.000132,0.000129,-3e-06,-2.0,1
335,0.000172,0.000165,-7e-06,-3.86,1
336,6.9e-05,7.1e-05,2e-06,2.33,1
337,7.8e-05,7.4e-05,-4e-06,-5.74,1
338,8.7e-05,8.8e-05,1e-06,1.52,1
339,9.8e-05,0.000104,6e-06,6.15,1
340,8.4e-05,8.7e-05,3e-06,4.15,1
341,0.000133,0.000142,9e-06,6.7,1
342,0.000132,0.00013,-2e-06,-1.77,1
343,0.000201,0.000206,5e-06,2.45,1
344,8.6e-05,8.5e-05,-1e-06,-1.0,1
345,7e-05,7.2e-05,1e-06,1.69,1
346,8e-05,8.2e-05,2e-06,2.89,1
347,0.000116,0.000118,2e-06,1.88,1
348,8.7e-05,9e-05,4e-06,4.21,1
349,0.000134,0.000138,4e-06,2.92,1
350,0.000179,0.000187,7e-06,4.09,1
351,0.000158,0.000158,0.0,0.24,1
352,7e-05,7.1e-05,1e-06,1.44,1
353,7.8e-05,7.5e-05,-4e-06,-4.85,1
354,8.7e-05,8.8e-05,1e-06,1.55,1
355,8.4e-05,8.5e-05,1e-06,1.3,1
356,8.3e-05,8.8e-05,5e-06,5.96,1
357,0.000126,0.000129,2e-06,1.77,1
358,0.000116,0.000117,1e-06,0.85,1
359,0.000183,0.000175,-8e-06,-4.37,1
360,7.3e-05,7.5e-05,2e-06,2.72,1
361,7.8e-05,7.5e-05,-3e-06,-4.19,1
362,7.3e-05,7.7e-05,4e-06,5.21,1
363,0.000136,0.00013,-6e-06,-4.37,1
364,9.5e-05,9.3e-05,-2e-06,-1.82,1
365,0.000114,0.000115,1e-06,0.62,1
366,0.000152,0.000152,-0.0,-0.18,1
367,0.000172,0.000168,-4e-06,-2.21,1
368,6.4e-05,6.8e-05,3e-06,5.19,1
369,8.2e-05,8.2e-05,-0.0,-0.29,1
370,6.4e-05,6.6e-05,2e-06,3.2,1
371,0.000109,0.000117,7e-06,6.48,1
372,7.3e-05,7.1e-05,-2e-06,-2.67,1
373,0.000114,0.000115,1e-06,0.89,1
374,0.000116,0.000117,1e-06,1.13,1
375,0.000156,0.000148,-8e-06,-4.96,1
376,6.9e-05,7.1e-05,2e-06,2.33,1
377,6.5e-05,6.6e-05,2e-06,2.88,1
378,6.4e-05,6.6e-05,2e-06,2.96,1
379,0.000107,0.000112,5e-06,4.87,1
380,7.3e-05,7.1e-05,-2e-06,-2.54,1
381,0.000101,0.000108,7e-06,6.44,1
382,0.000125,0.000127,2e-06,1.53,1
383,0.000179,0.000176,-3e-06,-1.77,1
384,8.2e-05,8.4e-05,2e-06,2.53,1
385,7e-05,7.2e-05,1e-06,1.72,1
386,8.1e-05,8.7e-05,6e-06,6.95,1
387,9.9e-05,0.000106,7e-06,7.33,1
388,8.7e-05,9e-05,4e-06,4.06,1
389,0.000112,0.000112,0.0,0.3,1
390,0.000125,0.000127,2e-06,1.72,1
391,0.000201,0.000208,7e-06,3.37,1
392,8.7e-05,8.7e-05,-0.0,-0.54,1
393,8e-05,8.5e-05,6e-06,6.91,1
394,7.6e-05,8.1e-05,5e-06,6.95,1
395,9.2e-05,9e-05,-2e-06,-2.41,1
396,9.1e-05,9.2e-05,1e-06,0.89,1
397,8.4e-05,8.8e-05,4e-06,4.74,1
398,0.000102,0.000102,1e-06,0.76,1
399,0.000252,0.000248,-4e-06,-1.4,1
400,6.9e-05,7.1e-05,1e-06,2.15,1
401,8.2e-05,8.2e-05,-0.0,-0.03,1
402,7.6e-05,8.2e-05,5e-06,7.01,1
403,0.000116,0.000118,2e-06,1.87,1
404,0.000102,9.8e-05,-4e-06,-3.76,1
405,8.4e-05,8.9e-05,4e-06,5.08,1
406,0.000132,0.00013,-2e-06,-1.64,1
407,0.000172,0.000179,8e-06,4.44,1
408,7.3e-05,7.5e-05,2e-06,2.69,1
409,8e-05,8.5e-05,5e-06,6.82,1
410,9.1e-05,9.8e-05,7e-06,7.21,1
411,0.000109,0.000116,7e-06,6.23,1
412,9.5e-05,9.3e-05,-2e-06,-1.67,1
413,8.4e-05,8.9e-05,5e-06,5.37,1
414,0.000132,0.00013,-2e-06,-1.46,1
415,0.000179,0.000177,-2e-06,-1.02,1
416,6.6e-05,7.5e-05,9e-06,13.13,1
417,6.5e-05,6.6e-05,1e-06,2.14,1
418,7.3e-05,7.7e-05,3e-06,4.59,1
419,0.000109,0.000116,7e-06,5.98,1
420,9.5e-05,9.4e-05,-1e-06,-1.35,1
421,0.000101,0.000108,6e-06,6.39,1
422,0.000132,0.00013,-2e-06,-1.32,1
423,0.000156,0.000151,-6e-06,-3.59,1
424,7.1e-05,7e-05,-1e-06,-1.54,1
425,8e-05,8.5e-05,5e-06,6.5,1
426,8.9e-05,9e-05,1e-06,1.64,1
427,0.000116,0.000118,2e-06,1.87,1
428,8.4e-05,8.8e-05,4e-06,4.54,1
429,0.000125,0.000128,3e-06,2.44,1
430,0.000115,0.000118,3e-06,2.62,1
431,0.000201,0.000208,7e-06,3.45,1
432,8.2e-05,8.5e-05,2e-06,2.86,1
433,8.8e-05,9.4e-05,6e-06,6.8,1
434,8.3e-05,8.3e-05,0.0,0.44,1
435,8.4e-05,8.5e-05,1e-06,1.58,1
436,7.8e-05,7.6e-05,-1e-06,-1.67,1
437,8.4e-05,8.9e-05,5e-06,5.52,1
438,0.000152,0.000151,-0.0,-0.32,1
439,0.000201,0.000209,7e-06,3.55,1
440,8.4e-05,8.7e-05,2e-06,2.48,1
441,7.7e-05,8.3e-05,6e-06,7.52,1
442,6.4e-05,6.6e-05,2e-06,2.85,1
443,8.4e-05,8.5e-05,1e-06,1.45,1
444,8.7e-05,9e-05,4e-06,4.12,1
445,0.000114,0.000116,1e-06,1.27,1
446,0.00013,0.000136,6e-06,4.35,1
447,0.000156,0.000152,-4e-06,-2.41,1
448,6.4e-05,6.7e-05,3e-06,4.91,1
449,5.7e-05,6e-05,3e-06,4.5,1
450,8.9e-05,9e-05,1e-06,1.55,1
451,9.2e-05,9.6e-05,5e-06,4.95,1
452,0.000102,0.000108,6e-06,5.48,1
453,9.7e-05,9.8e-05,0.0,0.47,1
454,0.000116,0.000118,1e-06,1.26,1
455,0.000181,0.000182,1e-06,0.54,1
456,8.1e-05,7.8e-05,-3e-06,-3.77,1
457,6.5e-05,6.6e-05,1e-06,2.11,1
458,8.7e-05,8.7e-05,0.0,0.14,1
459,0.000136,0.000131,-5e-06,-3.4,1
460,7.2e-05,7.7e-05,4e-06,5.93,1
461,0.000101,0.000108,6e-06,6.31,1
462,0.000102,0.000103,1e-06,1.11,1
463,0.000252,0.000249,-3e-06,-1.03,1
464,7.3e-05,7.5e-05,2e-06,2.6,1
465,7.7e-05,8.3e-05,6e-06,7.25,1
466,8.1e-05,8.7e-05,6e-06,7.08,1
467,0.000107,0.000112,5e-06,4.66,1
468,7.2e-05,7.6e-05,4e-06,5.59,1
469,0.000114,0.000116,2e-06,1.5,1
470,0.000115,0.000118,3e-06,2.54,1
471,0.000232,0.000228,-4e-06,-1.68,1
472,8.7e-05,8.7e-05,-0.0,-0.38,1
473,8.2e-05,8.3e-05,0.0,0.5,1
474,8.7e-05,8.8e-05,1e-06,1.38,1
475,8.1e-05,8.6e-05,6e-06,6.87,1
476,7.3e-05,7.1e-05,-2e-06,-2.22,1
477,8.4e-05,8.9e-05,5e-06,5.46,1
478,0.000115,0.000118,3e-06,2.74,1
479,0.000152,0.000154,3e-06,1.74,1
480,7.1e-05,7e-05,-1e-06,-1.19,1
481,7e-05,7.1e-05,1e-06,1.29,1
482,9.1e-05,9.8e-05,6e-06,6.89,1
483,0.000109,0.000116,6e-06,5.66,1
484,8.3e-05,8.8e-05,5e-06,5.9,1
485,7.9e-05,7.8e-05,-1e-06,-1.01,1
486,0.000132,0.00013,-2e-06,-1.32,1
487,0.000232,0.000231,-1e-06,-0.51,1
488,8.6e-05,8.5e-05,-1e-06,-0.64,1
489,8.1e-05,8.1e-05,-0.0,-0.36,1
490,8e-05,8.2e-05,3e-06,3.14,1
491,0.000136,0.000133,-3e-06,-2.57,1
492,7.2e-05,7.6e-05,4e-06,5.35,1
493,0.000101,0.000108,6e-06,6.27,1
494,0.000145,0.000147,2e-06,1.37,1
495,0.000201,0.000208,7e-06,3.52,1
496,7.7e-05,7.9e-05,2e-06,2.22,1
497,7.7e-05,8.2e-05,6e-06,7.21,1
498,6.4e-05,6.6e-05,2e-06,3.13,1
499,8.4e-05,8.5e-05,1e-06,1.55,1
500,7.8e-05,7.7e-05,-1e-06,-1.19,1
501,0.000114,0.000116,1e-06,1.17,1
502,0.00013,0.000136,6e-06,4.65,1
503,0.000172,0.000181,9e-06,5.2,1
504,8.2e-05,8.5e-05,2e-06,2.9,1
505,5.7e-05,5.9e-05,2e-06,3.26,1
506,8.9e-05,9e-05,1e-06,1.31,1
507,9.2e-05,9.6e-05,4e-06,4.88,1
508,7.3e-05,7.1e-05,-1e-06,-1.97,1
509,0.000114,0.000116,2e-06,1.37,1
510,0.000132,0.00013,-2e-06,-1.16,1
511,0.000172,0.000181,9e-06,5.31,1
512,8.2e-05,8.5e-05,2e-06,2.93,1
513,7e-05,7.2e-05,1e-06,1.62,1
514,6.4e-05,6.6e-05,2e-06,3.44,1
515,9.2e-05,9.6e-05,4e-06,4.79,1
516,9.1e-05,9.2e-05,1e-06,1.22,1
517,9.7e-05,9.8e-05,0.0,0.22,1
518,0.000115,0.000119,3e-06,3.01,1
519,0.000172,0.000181,9e-06,5.37,1
520,7.3e-05,7.5e-05,2e-06,2.6,1
521,8.8e-05,9.4e-05,6e-06,6.55,1
522,7.3e-05,7.7e-05,3e-06,4.15,1
523,0.000109,0.000116,6e-06,5.55,1
524,8.3e-05,8.8e-05,5e-06,5.84,1
525,9.7e-05,9.8e-05,0.0,0.32,1
526,0.000157,0.000157,0.0,0.17,1
527,0.000181,0.000182,1e-06,0.61,1
528,7.1e-05,7.1e-05,-0.0,-0.66,1
529,7.8e-05,7.5e-05,-3e-06,-3.79,1
530,8.7e-05,8.8e-05,1e-06,1.52,1
531,9.8e-05,0.000104,7e-06,6.64,1
532,7.8e-05,7.7e-05,-1e-06,-1.01,1
533,0.000112,0.000112,0.0,0.04,1
534,0.00013,0.000136,6e-06,4.44,1
535,0.000158,0.000159,1e-06,0.79,1
536,7.3e-05,7.5e-05,2e-06,2.69,1
537,7.7e-05,8.2e-05,5e-06,6.92,1
538,7.3e-05,7.7e-05,3e-06,4.18,1
539,8.4e-05,8.5e-05,1e-06,1.4,1
540,8.4e-05,8.8e-05,4e-06,4.74,1
541,0.000134,0.000138,4e-06,2.94,1
542,0.000145,0.000148,3e-06,1.91,1
543,0.000156,0.000154,-2e-06,-1.48,1
544,7.3e-05,7.5e-05,2e-06,2.78,1
545,7.8e-05,7.6e-05,-3e-06,-3.46,1
546,7.3e-05,7.7e-05,3e-06,4.13,1
547,0.000109,0.000115,6e-06,5.41,1
548,7.2e-05,7.6e-05,4e-06,5.05,1
549,0.000134,0.000138,4e-06,3.24,1
550,0.00013,0.000136,6e-06,4.49,1
551,0.000156,0.000155,-1e-06,-0.88,1
552,7.1e-05,7.1e-05,-0.0,-0.55,1
553,7.7e-05,8e-05,2e-06,3.21,1
554,8.7e-05,8.8e-05,1e-06,1.1,1
555,9.9e-05,0.000106,7e-06,6.96,1
556,0.000102,9.8e-05,-3e-06,-3.4,1
557,7.9e-05,7.8e-05,-1e-06,-0.98,1
558,0.000115,0.000119,4e-06,3.21,1
559,0.000252,0.00025,-2e-06,-0.65,1
560,8.2e-05,8.5e-05,2e-06,3.03,1
561,8.8e-05,9.4e-05,6e-06,6.58,1
562,8.1e-05,8.7e-05,6e-06,7.25,1
563,0.00013,0.000126,-4e-06,-3.08,1
564,8.4e-05,8.8e-05,4e-06,4.85,1
565,0.000125,0.000128,3e-06,2.47,1
566,0.000132,0.00013,-1e-06,-1.12,1
567,0.000183,0.000177,-6e-06,-3.11,1
568,8.2e-05,8.5e-05,3e-06,3.05,1
569,5.7e-05,5.9e-05,1e-06,2.58,1
570,8.7e-05,8.8e-05,1e-06,1.21,1
571,9.8e-05,0.000105,7e-06,7.16,1
572,8.7e-05,9.1e-05,4e-06,4.27,1
573,9.7e-05,9.8e-05,1e-06,0.55,1
574,0.000138,0.000138,-0.0,-0.04,1
575,0.000232,0.000233,1e-06,0.55,1
576,7.7e-05,7.9e-05,2e-06,2.5,1
577,6.5e-05,6.6e-05,2e-06,2.46,1
578,8.1e-05,8.7e-05,6e-06,7.03,1
579,8.1e-05,8.6e-05,5e-06,6.21,1
580,9.3e-05,9.4e-05,2e-06,1.86,1
581,0.000112,0.000112,-0.0,-0.04,1
582,0.000116,0.000118,2e-06,1.58,1
583,0.000152,0.000155,3e-06,2.02,1
584,7.3e-05,7.5e-05,2e-06,2.76,1
585,6.5e-05,6.6e-05,2e-06,2.38,1
586,8.7e-05,8.8e-05,1e-06,1.32,1
587,8.4e-05,8.5e-05,1e-06,1.31,1
588,0.000102,9.9e-05,-3e-06,-3.17,1
589,0.000112,0.000112,0.0,0.12,1
590,0.000132,0.000131,-1e-06,-1.06,1
591,0.000232,0.000234,2e-06,0.94,1
592,6.4e-05,6.7e-05,2e-06,3.66,1
593,7.8e-05,7.6e-05,-2e-06,-3.0,1
594,8.9e-05,9e-05,1e-06,1.29,1
595,0.000107,0.000112,5e-06,4.5,1
596,9.3e-05,9.5e-05,2e-06,1.91,1
597,0.000101,0.000108,6e-06,6.24,1
598,0.000138,0.000138,0.0,0.28,1
599,0.000152,0.000155,3e-06,2.11,1
600,6.4e-05,8.1e-05,1.7e-05,26.26,2
601,7.6e-05,8.4e-05,8e-06,9.99,2
602,7e-05,7.2e-05,2e-06,3.08,2
603,9.9e-05,9.6e-05,-3e-06,-2.56,2
604,0.000114,9.6e-05,-1.7e-05,-15.21,2
605,8.2e-05,8.1e-05,-1e-06,-0.77,2
606,9.6e-05,9.2e-05,-4e-06,-4.17,2
607,0.00014,0.00012,-2e-05,-14.24,2
608,8.1e-05,7.4e-05,-7e-06,-8.47,2
609,7.5e-05,8.6e-05,1.1e-05,14.71,2
610,6.5e-05,5.2e-05,-1.3e-05,-19.52,2
611,8.5e-05,0.000103,1.8e-05,21.11,2
612,8.8e-05,8.4e-05,-3e-06,-3.55,2
613,8.5e-05,8.8e-05,3e-06,3.97,2
614,8.6e-05,9e-05,3e-06,3.9,2
615,0.00014,0.000129,-1e-05,-7.51,2
616,6.1e-05,5.6e-05,-5e-06,-8.28,2
617,6.6e-05,6.4e-05,-2e-06,-2.9,2
618,6.2e-05,6.4e-05,2e-06,2.89,2
619,0.00013,0.000121,-1e-05,-7.46,2
620,6.5e-05,6.3e-05,-2e-06,-2.94,2
621,7.2e-05,7.6e-05,5e-06,6.45,2
622,0.000126,0.000124,-2e-06,-1.63,2
623,0.00014,0.000134,-5e-06,-3.72,2
624,8.5e-05,8e-05,-5e-06,-6.08,2
625,6.3e-05,6.5e-05,2e-06,2.78,2
626,8e-05,8.2e-05,2e-06,2.22,2
627,0.00013,0.000126,-5e-06,-3.62,2
628,7.4e-05,7.7e-05,3e-06,4.38,2
629,8.6e-05,8.9e-05,3e-06,3.28,2
630,0.000113,0.000114,1e-06,1.04,2
631,0.000189,0.000168,-2.1e-05,-10.98,2
632,9.5e-05,9.6e-05,2e-06,1.75,2
633,6.6e-05,6.6e-05,-1e-06,-1.24,2
634,6.1e-05,6.2e-05,1e-06,1.93,2
635,8.7e-05,7.5e-05,-1.2e-05,-14.29,2
636,0.000102,0.000105,3e-06,2.66,2
637,8.2e-05,8.3e-05,1e-06,1.69,2
638,0.000113,0.000113,0.0,0.31,2
639,0.000361,0.0003,-6.1e-05,-16.88,2
640,8.5e-05,8e-05,-5e-06,-5.6,2
641,7.3e-05,9.5e-05,2.1e-05,28.81,2
642,6.5e-05,7.3e-05,8e-06,12.45,2
643,0.000114,0.000115,1e-06,0.68,2
644,9.3e-05,0.000102,9e-06,9.57,2
645,9.3e-05,9.7e-05,5e-06,5.23,2
646,8.6e-05,8.9e-05,2e-06,2.76,2
647,0.000132,0.000121,-1e-05,-7.95,2
648,7.1e-05,6.3e-05,-7e-06,-10.49,2
649,4.9e-05,5.8e-05,9e-06,18.55,2
650,6.6e-05,6.4e-05,-1e-06,-2.06,2
651,8.7e-05,7.4e-05,-1.3e-05,-14.66,2
652,8.8e-05,8.6e-05,-2e-06,-2.05,2
653,7.3e-05,8.2e-05,1e-05,13.18,2
654,0.000249,0.000234,-1.5e-05,-6.07,2
655,0.000151,0.000117,-3.4e-05,-22.41,2
656,7.1e-05,8e-05,9e-06,13.41,2
657,6.3e-05,6.3e-05,-0.0,-0.3,2
658,6.2e-05,6.8e-05,5e-06,8.8,2
659,9.9e-05,9.8e-05,-0.0,-0.35,2
660,6.5e-05,6.4e-05,-1e-06,-1.34,2
661,0.0001,9.9e-05,-1e-06,-1.26,2
662,9.6e-05,9.7e-05,1e-06,1.31,2
663,0.000143,0.00014,-3e-06,-2.12,2
664,9.8e-05,9.7e-05,-1e-06,-1.1,2
665,6.1e-05,6.9e-05,7e-06,11.89,2
666,6.1e-05,6e-05,-1e-06,-1.47,2
667,0.000114,0.000116,2e-06,1.53,2
668,8.1e-05,8.7e-05,7e-06,8.06,2
669,7.2e-05,7.9e-05,7e-06,9.43,2
670,0.000111,0.000101,-9e-06,-8.43,2
671,0.00012,0.000114,-6e-06,-5.16,2
672,6.1e-05,5.9e-05,-2e-06,-3.98,2
673,7.6e-05,8.2e-05,7e-06,8.7,2
674,6.8e-05,6.3e-05,-5e-06,-7.57,2
675,8.8e-05,0.0001,1.2e-05,13.82,2
676,0.000114,0.000113,-0.0,-0.34,2
677,9.3e-05,0.0001,8e-06,8.11,2
678,0.000105,0.000105,-1e-06,-0.5,2
679,0.000124,0.000116,-7e-06,-5.87,2
680,5.9e-05,5.9e-05,1e-06,1.16,2
681,6.1e-05,5.9e-05,-2e-06,-2.82,2
682,5.8e-05,6.9e-05,1.2e-05,20.17,2
683,8.5e-05,9.5e-05,1e-05,11.77,2
684,9.3e-05,9.8e-05,5e-06,5.51,2
685,7.2e-05,7.9e-05,7e-06,9.46,2
686,8.6e-05,8.7e-05,0.0,0.58,2
687,0.000198,0.000166,-3.2e-05,-15.96,2
688,6.4e-05,6.8e-05,4e-06,6.0,2
689,4.9e-05,5.4e-05,5e-06,10.92,2
690,4.1e-05,4.8e-05,7e-06,17.25,2
691,7.5e-05,8.3e-05,8e-06,11.09,2
692,7.2e-05,6.6e-05,-6e-06,-7.83,2
693,8.6e-05,8.8e-05,2e-06,2.84,2
694,8.6e-05,8.7e-05,1e-06,1.41,2
695,0.000132,0.000127,-5e-06,-3.73,2
696,6.4e-05,6.5e-05,1e-06,1.53,2
697,6.3e-05,6.7e-05,4e-06,6.31,2
698,4.1e-05,4.6e-05,5e-06,12.33,2
699,9.9e-05,0.000101,2e-06,2.11,2
700,0.000102,0.000107,6e-06,5.56,2
701,8.7e-05,9e-05,3e-06,3.02,2
702,0.000105,0.000106,0.0,0.17,2
703,0.00012,0.000117,-3e-06,-2.33,2
704,6.8e-05,7.2e-05,4e-06,5.39,2
705,6.9e-05,7e-05,2e-06,2.32,2
706,6.2e-05,6.6e-05,4e-06,6.15,2
707,0.000186,0.000189,3e-06,1.78,2
708,7.2e-05,6.7e-05,-5e-06,-6.54,2
709,0.000102,0.000101,-1e-06,-0.97,2
710,0.000101,0.000102,1e-06,1.32,2
711,0.000124,0.000121,-3e-06,-2.05,2
712,6.1e-05,6e-05,-1e-06,-2.13,2
713,7.6e-05,8.6e-05,1e-05,12.66,2
714,7e-05,7.2e-05,2e-06,3.23,2
715,8.4e-05,9e-05,6e-06,7.28,2
716,8.8e-05,8.5e-05,-3e-06,-3.22,2
717,6.6e-05,6.5e-05,-1e-06,-1.27,2
718,9.6e-05,9.9e-05,3e-06,3.34,2
719,0.000189,0.000181,-8e-06,-4.21,2
720,7.1e-05,6.5e-05,-5e-06,-7.62,2
721,6.9e-05,7e-05,1e-06,1.85,2
722,6.5e-05,6.2e-05,-3e-06,-4.69,2
723,8.8e-05,9.8e-05,1e-05,11.38,2
724,8.8e-05,8.5e-05,-2e-06,-2.68,2
725,0.000152,0.000149,-3e-06,-1.78,2
726,8.6e-05,8.8e-05,2e-06,2.22,2
727,0.000151,0.000135,-1.6e-05,-10.66,2
728,7.6e-05,7e-05,-6e-06,-8.53,2
729,6.9e-05,6.9e-05,1e-06,1.3,2
730,6.5e-05,6.9e-05,4e-06,6.22,2
731,0.000108,0.000111,3e-06,3.01,2
732,7.2e-05,6.8e-05,-4e-06,-5.71,2
733,0.000102,0.000102,1e-06,0.59,2
734,0.000147,0.000158,1.1e-05,7.6,2
735,0.000151,0.000141,-1e-05,-6.7,2
736,8.1e-05,8e-05,-1e-06,-1.01,2
737,7.6e-05,8.3e-05,8e-06,9.9,2
738,7.1e-05,8.3e-05,1.1e-05,15.79,2
739,0.000108,0.00011,2e-06,1.77,2
740,9.3e-05,9.6e-05,4e-06,4.1,2
741,7.2e-05,7.6e-05,4e-06,5.87,2
742,0.000106,0.00011,5e-06,4.61,2
743,0.00012,0.00012,0.0,0.11,2
744,8.1e-05,8e-05,-1e-06,-1.04,2
745,6.3e-05,6.2e-05,-0.0,-0.73,2
746,7e-05,7.2e-05,2e-06,2.62,2
747,7.7e-05,8.7e-05,1.1e-05,13.98,2
748,0.000114,0.000116,2e-06,1.61,2
749,8.7e-05,9e-05,3e-06,3.62,2
750,9.6e-05,9.9e-05,4e-06,3.67,2
751,0.000147,0.000139,-8e-06,-5.42,2
752,6.4e-05,7.5e-05,1.1e-05,16.74,2
753,6.3e-05,6.2e-05,-1e-06,-1.44,2
754,8e-05,8.3e-05,3e-06,3.92,2
755,8.5e-05,9.2e-05,7e-06,8.16,2
756,6.5e-05,6.5e-05,1e-06,0.92,2
757,8.7e-05,9.1e-05,3e-06,3.96,2
758,0.000106,0.000111,5e-06,4.88,2
759,0.000124,0.000124,0.0,0.01,2
760,6.8e-05,7.1e-05,2e-06,3.42,2
761,7.5e-05,8.2e-05,7e-06,9.75,2
762,5.8e-05,6.6e-05,8e-06,14.19,2
763,8.7e-05,7.9e-05,-8e-06,-9.72,2
764,9.6e-05,9.6e-05,0.0,0.14,2
765,7.3e-05,7.7e-05,4e-06,5.45,2
766,0.000249,0.000246,-4e-06,-1.46,2
767,0.000189,0.000185,-4e-06,-2.05,2
768,5.9e-05,5.8e-05,-1e-06,-1.99,2
769,6.3e-05,6.6e-05,3e-06,4.86,2
770,4.1e-05,4.5e-05,4e-06,9.55,2
771,9.9e-05,0.000103,4e-06,3.94,2
772,7.3e-05,7.8e-05,5e-06,7.24,2
773,7.3e-05,7.6e-05,3e-06,4.61,2
774,9.6e-05,9.9e-05,3e-06,3.41,2
775,0.000361,0.000352,-9e-06,-2.49,2
776,6.8e-05,7e-05,1e-06,2.17,2
777,6.6e-05,6.9e-05,3e-06,4.53,2
778,7e-05,7.1e-05,1e-06,1.22,2
779,9.9e-05,0.000103,4e-06,4.07,2
780,0.000114,0.000117,3e-06,2.59,2
781,0.000152,0.000152,1e-06,0.58,2
782,9.6e-05,9.9e-05,3e-06,3.47,2
783,0.000132,0.000129,-3e-06,-1.91,2
784,7.1e-05,7.1e-05,0.0,0.54,2
785,7.5e-05,8e-05,5e-06,7.1,2
786,6.5e-05,6.3e-05,-2e-06,-3.51,2
787,7.7e-05,8.2e-05,5e-06,6.4,2
788,0.000102,0.000109,7e-06,6.79,2
789,8.5e-05,8.3e-05,-2e-06,-2.64,2
790,0.000111,0.000108,-3e-06,-2.83,2
791,0.00012,0.000121,1e-06,0.67,2
792,6.4e-05,7.1e-05,7e-06,10.66,2
793,6.3e-05,6.2e-05,-1e-06,-1.35,2
794,6.2e-05,6.6e-05,4e-06,6.79,2
795,9.9e-05,0.000103,4e-06,4.39,2
796,6.5e-05,6.6e-05,1e-06,1.74,2
797,0.000102,0.000103,2e-06,1.69,2
798,0.000113,0.000112,-1e-06,-0.6,2
799,0.000189,0.000187,-2e-06,-0.89,2
800,6.8e-05,7e-05,1e-06,1.57,2
801,6.3e-05,6.2e-05,-1e-06,-1.24,2
802,7.1e-05,7.9e-05,7e-06,10.46,2
803,8.7e-05,8.1e-05,-7e-06,-7.47,2
804,6.5e-05,6.6e-05,1e-06,1.75,2
805,6.6e-05,6.6e-05,-0.0,-0.75,2
806,0.000154,0.000155,2e-06,1.08,2
807,0.000147,0.000144,-2e-06,-1.61,2
808,6.4e-05,6.9e-05,5e-06,8.12,2
809,6.1e-05,6e-05,-0.0,-0.54,2
810,8e-05,8.3e-05,3e-06,3.75,2
811,7.7e-05,8.2e-05,5e-06,6.44,2
812,7.3e-05,7.6e-05,4e-06,5.06,2
813,0.0001,0.000103,3e-06,2.92,2
814,0.000106,0.00011,5e-06,4.5,2
815,0.00012,0.000121,1e-06,1.04,2
816,7.6e-05,7.1e-05,-5e-06,-6.18,2
817,4.9e-05,5.3e-05,4e-06,8.57,2
818,7.1e-05,7.8e-05,7e-06,9.24,2
819,8.7e-05,8.2e-05,-5e-06,-5.73,2
820,7.6e-05,8e-05,4e-06,5.03,2
821,8.7e-05,9.1e-05,4e-06,4.44,2
822,0.000111,0.000109,-2e-06,-1.44,2
823,0.000124,0.000125,1e-06,0.94,2
824,8.5e-05,8.3e-05,-3e-06,-2.99,2
825,7.3e-05,7.9e-05,6e-06,7.93,2
826,6.5e-05,6.8e-05,3e-06,4.79,2
827,7.7e-05,8.2e-05,5e-06,6.24,2
828,7.8e-05,7.9e-05,2e-06,2.49,2
829,7.2e-05,7.6e-05,4e-06,5.61,2
830,0.000154,0.000155,2e-06,1.13,2
831,0.000361,0.000361,-0.0,-0.01,2
832,6.4e-05,6.6e-05,1e-06,1.85,2
833,6.1e-05,6.2e-05,1e-06,1.59,2
834,6.1e-05,5.9e-05,-2e-06,-3.76,2
835,0.00013,0.000132,1e-06,0.89,2
836,0.000102,0.000109,7e-06,7.31,2
837,7.3e-05,7.5e-05,3e-06,3.46,2
838,0.000249,0.00025,1e-06,0.33,2
839,0.000124,0.000125,1e-06,1.18,2
840,5.9e-05,5.7e-05,-1e-06,-2.25,2
841,6.9e-05,6.9e-05,0.0,0.71,2
842,6.5e-05,6.8e-05,3e-06,4.88,2
843,8.4e-05,8.5e-05,1e-06,1.74,2
844,7.8e-05,7.9e-05,2e-06,2.23,2
845,7.3e-05,7.5e-05,2e-06,3.31,2
846,0.000106,0.00011,4e-06,4.11,2
847,0.000143,0.000137,-6e-06,-3.97,2
848,8.5e-05,8.3e-05,-2e-06,-2.03,2
849,6.1e-05,6e-05,-1e-06,-1.44,2
850,5.8e-05,6.4e-05,6e-06,10.52,2
851,7.7e-05,8.6e-05,9e-06,12.24,2
852,8.8e-05,8.7e-05,-1e-06,-1.06,2
853,8.7e-05,9.2e-05,5e-06,5.21,2
854,9.6e-05,9.9e-05,3e-06,3.43,2
855,0.000198,0.000178,-2e-05,-9.95,2
856,8.1e-05,8e-05,-1e-06,-0.86,2
857,4.9e-05,5.2e-05,3e-06,7.0,2
858,7.1e-05,7.7e-05,6e-06,7.93,2
859,7.5e-05,8e-05,6e-06,7.46,2
860,7.3e-05,7.6e-05,3e-06,4.37,2
861,0.000102,0.000104,3e-06,2.59,2
862,0.000101,0.000104,3e-06,3.13,2
863,0.000151,0.000146,-5e-06,-3.13,2
864,7.6e-05,7.2e-05,-4e-06,-5.0,2
865,6.1e-05,6.2e-05,0.0,0.45,2
866,7.1e-05,7.6e-05,5e-06,7.13,2
867,7.7e-05,8.1e-05,5e-06,6.0,2
868,7.2e-05,6.9e-05,-2e-06,-3.18,2
869,7.2e-05,8e-05,7e-06,10.21,2
870,0.000147,0.00016,1.3e-05,8.67,2
871,0.000189,0.000188,-1e-06,-0.62,2
872,7.1e-05,6.9e-05,-2e-06,-2.54,2
873,6.9e-05,6.9e-05,1e-06,0.84,2
874,6.2e-05,6.6e-05,4e-06,6.08,2
875,8.4e-05,8.5e-05,1e-06,1.21,2
876,0.000114,0.000118,5e-06,4.14,2
877,0.000152,0.000154,2e-06,1.49,2
878,0.000249,0.000252,3e-06,1.01,2
879,0.000124,0.000125,1e-06,1.18,2
880,6.4e-05,6.6e-05,1e-06,1.84,2
881,4.9e-05,5.2e-05,3e-06,5.81,2
882,6.1e-05,5.9e-05,-2e-06,-3.9,2
883,0.000186,0.000195,9e-06,4.78,2
884,7.8e-05,7.9e-05,2e-06,2.13,2
885,0.0001,0.000103,3e-06,3.45,2
886,0.000101,0.000104,3e-06,3.41,2
887,0.000198,0.000183,-1.5e-05,-7.57,2
888,9.8e-05,9.9e-05,1e-06,0.59,2
889,6.3e-05,6.6e-05,3e-06,5.44,2
890,7e-05,7.1e-05,1e-06,1.77,2
891,7.5e-05,8e-05,5e-06,6.61,2
892,6.5e-05,6.6e-05,1e-06,2.09,2
893,0.000152,0.000155,3e-06,2.04,2
894,0.000106,0.00011,4e-06,4.07,2
895,0.000151,0.000148,-2e-06,-1.61,2
896,6.1e-05,6.2e-05,0.0,0.19,2
897,6.1e-05,6e-05,-1e-06,-1.61,2
898,6.2e-05,6.6e-05,3e-06,5.51,2
899,0.00013,0.000132,2e-06,1.5,2
900,7.6e-05,7.9e-05,3e-06,3.69,2
901,7.2e-05,7.6e-05,4e-06,5.3,2
902,0.000105,0.000109,3e-06,3.1,2
903,0.000143,0.000146,3e-06,2.03,2
904,6.8e-05,6.9e-05,0.0,0.2,2
905,6.9e-05,6.9e-05,1e-06,1.32,2
906,4.1e-05,4.4e-05,3e-06,7.24,2
907,0.00013,0.000133,2e-06,1.77,2
908,8.8e-05,8.7e-05,-1e-06,-0.79,2
909,7.2e-05,7.5e-05,4e-06,4.91,2
910,0.000105,0.000109,4e-06,3.4,2
911,0.000143,0.00014,-3e-06,-2.29,2
912,6.4e-05,6.8e-05,4e-06,6.0,2
913,6.6e-05,7.1e-05,5e-06,7.32,2
914,6.2e-05,7.6e-05,1.4e-05,22.42,2
915,0.000114,0.000117,3e-06,2.68,2
916,9.3e-05,9.6e-05,3e-06,3.11,2
917,8.6e-05,8.9e-05,3e-06,3.95,2
918,0.000126,0.000131,5e-06,4.08,2
919,0.000143,0.000146,3e-06,2.3,2
920,7.6e-05,7.3e-05,-3e-06,-4.35,2
921,6.7e-05,7.5e-05,7e-06,11.11,2
922,4.1e-05,4.3e-05,2e-06,5.34,2
923,8.7e-05,8.4e-05,-3e-06,-3.8,2
924,8.1e-05,8.5e-05,4e-06,5.35,2
925,6.6e-05,6.7e-05,0.0,0.63,2
926,0.000147,0.000159,1.2e-05,8.27,2
927,0.000132,0.00013,-2e-06,-1.2,2
928,6.1e-05,6.2e-05,0.0,0.67,2
929,7.6e-05,8.3e-05,7e-06,8.78,2
930,6.6e-05,6.7e-05,1e-06,1.38,2
931,9.9e-05,0.000103,5e-06,4.71,2
932,9.3e-05,9.6e-05,3e-06,3.21,2
933,7.2e-05,7.5e-05,3e-06,4.69,2
934,0.000113,0.000113,-0.0,-0.23,2
935,0.000198,0.000186,-1.2e-05,-6.12,2
936,7.1e-05,6.9e-05,-2e-06,-2.9,2
937,6.6e-05,7.1e-05,5e-06,7.65,2
938,6.2e-05,7.3e-05,1.1e-05,18.57,2
939,0.000108,0.000109,1e-06,0.76,2
940,6.5e-05,6.6e-05,1e-06,2.01,2
941,8.5e-05,8.3e-05,-2e-06,-2.4,2
942,9e-05,9.3e-05,3e-06,2.92,2
943,0.000166,0.000164,-2e-06,-1.19,2
944,8.5e-05,8.4e-05,-2e-06,-1.81,2
945,7.6e-05,8e-05,5e-06,6.08,2
946,5.8e-05,6.3e-05,5e-06,8.99,2
947,8.7e-05,8.5e-05,-2e-06,-2.84,2
948,7.8e-05,7.9e-05,2e-06,2.37,2
949,8.2e-05,8.4e-05,2e-06,2.64,2
950,9e-05,9.3e-05,3e-06,2.81,2
951,0.000147,0.000146,-1e-06,-0.35,2
952,5.9e-05,5.8e-05,-1e-06,-1.94,2
953,6.3e-05,6.3e-05,-0.0,-0.47,2
954,6.5e-05,6.8e-05,3e-06,3.87,2
955,8.7e-05,8.5e-05,-2e-06,-2.05,2
956,7.4e-05,7.3e-05,-1e-06,-0.79,2
957,8.6e-05,8.9e-05,3e-06,3.52,2
958,9.6e-05,9.9e-05,4e-06,3.88,2
959,0.000166,0.000166,-1e-06,-0.43,2
960,7.1e-05,6.9e-05,-2e-06,-3.04,2
961,6.6e-05,7.1e-05,5e-06,7.66,2
962,6.5e-05,6.8e-05,3e-06,3.91,2
963,0.000114,0.000118,3e-06,2.98,2
964,7.3e-05,7.5e-05,3e-06,3.58,2
965,7.2e-05,7.9e-05,7e-06,9.25,2
966,0.000126,0.000132,6e-06,4.56,2
967,0.00014,0.000135,-4e-06,-3.12,2
968,9.5e-05,9.4e-05,-1e-06,-1.11,2
969,6.1e-05,6e-05,-1e-06,-1.61,2
970,7e-05,7.1e-05,1e-06,1.55,2
971,8.4e-05,8.5e-05,1e-06,0.91,2
972,8.1e-05,8.5e-05,4e-06,5.26,2
973,8.7e-05,9.2e-05,5e-06,5.42,2
974,0.000106,0.00011,4e-06,3.84,2
975,0.000198,0.000188,-1e-05,-4.82,2
976,7.6e-05,7.3e-05,-3e-06,-4.06,2
977,6.1e-05,6.1e-05,0.0,0.33,2
978,6.5e-05,6.8e-05,3e-06,3.87,2
979,7.5e-05,7.9e-05,4e-06,5.93,2
980,9.3e-05,9.6e-05,3e-06,3.65,2
981,8.6e-05,8.8e-05,3e-06,3.15,2
982,0.000154,0.000156,2e-06,1.51,2
983,0.000143,0.000147,4e-06,2.62,2
984,9.8e-05,9.9e-05,1e-06,0.94,2
985,6.6e-05,7.1e-05,5e-06,7.48,2
986,5.8e-05,6.3e-05,5e-06,8.35,2
987,0.000186,0.000195,1e-05,5.14,2
988,9.6e-05,9.5e-05,-1e-06,-0.88,2
989,0.000152,0.000155,3e-06,2.08,2
990,0.000111,0.000111,0.0,0.39,2
991,0.000189,0.000189,-1e-06,-0.3,2
992,6.4e-05,6.6e-05,2e-06,2.49,2
993,6.1e-05,6.1e-05,0.0,0.08,2
994,6.2e-05,6.6e-05,4e-06,5.64,2
995,9.9e-05,0.000103,5e-06,4.56,2
996,0.000102,0.000109,8e-06,7.39,2
997,8.7e-05,9.2e-05,5e-06,5.42,2
998,0.000111,0.000112,1e-06,0.91,2
999,0.000166,0.000166,-1e-06,-0.35,2
1000,9.8e-05,9.9e-05,1e-06,0.87,2
1001,6.7e-05,7.2e-05,5e-06,7.51,2
1002,6.6e-05,6.6e-05,1e-06,0.94,2
1003,8.8e-05,9.7e-05,9e-06,9.99,2
1004,8.8e-05,8.7e-05,-0.0,-0.46,2
1005,8.5e-05,8.3e-05,-2e-06,-2.3,2
1006,9e-05,9.3e-05,2e-06,2.62,2
1007,0.000124,0.000127,3e-06,2.35,2
1008,7.6e-05,7.3e-05,-3e-06,-3.4,2
1009,6.3e-05,6.3e-05,-0.0,-0.41,2
1010,8e-05,8.3e-05,3e-06,3.24,2
1011,0.000108,0.000109,1e-06,1.17,2
1012,7.8e-05,8e-05,2e-06,3.0,2
1013,7.3e-05,7.5e-05,2e-06,2.68,2
1014,0.000101,0.000105,5e-06,4.75,2
1015,0.00012,0.000122,2e-06,1.88,2
1016,8.5e-05,8.4e-05,-1e-06,-1.4,2
1017,7.6e-05,8.1e-05,6e-06,7.3,2
1018,6.8e-05,6.6e-05,-1e-06,-2.18,2
1019,9.9e-05,0.000103,5e-06,4.66,2
1020,7.3e-05,7.5e-05,2e-06,3.38,2
1021,0.0001,0.000104,4e-06,3.86,2
1022,0.000111,0.000112,1e-06,1.12,2
1023,0.000124,0.000127,3e-06,2.49,2
1024,6.4e-05,6.6e-05,2e-06,2.53,2
1025,7.3e-05,7.7e-05,3e-06,4.35,2
1026,6.2e-05,7.2e-05,1e-05,16.24,2
1027,0.000108,0.000109,1e-06,1.23,2
1028,9.3e-05,9.6e-05,3e-06,3.39,2
1029,8.2e-05,8.5e-05,3e-06,3.05,2
1030,8.6e-05,8.9e-05,3e-06,2.96,2
1031,0.000189,0.000189,-0.0,-0.01,2
1032,7.1e-05,6.9e-05,-1e-06,-2.02,2
1033,6.6e-05,7.1e-05,5e-06,7.44,2
1034,6.8e-05,6.7e-05,-1e-06,-1.31,2
1035,7.7e-05,8.4e-05,8e-06,10.05,2
1036,6.5e-05,6.6e-05,1e-06,2.3,2
1037,7.2e-05,7.9e-05,7e-06,9.18,2
1038,9.6e-05,9.9e-05,4e-06,3.91,2
1039,0.00014,0.000137,-3e-06,-1.94,2
1040,6.4e-05,6.7e-05,3e-06,4.99,2
1041,7.6e-05,8e-05,4e-06,5.66,2
1042,4.1e-05,4.3e-05,2e-06,4.8,2
1043,8.7e-05,8.6e-05,-1e-06,-0.92,2
1044,7.8e-05,8e-05,2e-06,3.18,2
1045,0.000102,0.000105,3e-06,3.17,2
1046,0.000249,0.000252,3e-06,1.19,2
1047,0.00014,0.000138,-1e-06,-0.93,2
1048,8.5e-05,8.4e-05,-1e-06,-0.94,2
1049,6.1e-05,6e-05,-1e-06,-1.53,2
1050,4.1e-05,4.3e-05,2e-06,4.79,2
1051,9.9e-05,0.000103,5e-06,4.61,2
1052,7.6e-05,7.8e-05,2e-06,2.72,2
1053,0.0001,0.000103,4e-06,3.68,2
1054,0.000105,0.00011,4e-06,4.04,2
1055,0.000189,0.00019,0.0,0.25,2
1056,5.9e-05,5.8e-05,-1e-06,-1.72,2
1057,6.6e-05,7.1e-05,5e-06,7.44,2
1058,6.5e-05,6.7e-05,2e-06,3.35,2
1059,8.4e-05,8.4e-05,0.0,0.44,2
1060,9.6e-05,9.5e-05,-0.0,-0.52,2
1061,7.3e-05,7.5e-05,2e-06,2.59,2
1062,0.000101,0.000106,5e-06,5.2,2
1063,0.000132,0.000131,-1e-06,-0.73,2
1064,6.8e-05,6.9e-05,0.0,0.07,2
1065,7.5e-05,7.8e-05,4e-06,5.21,2
1066,4.1e-05,4.2e-05,2e-06,4.51,2
1067,0.000114,0.000118,4e-06,3.13,2
1068,0.000114,0.000119,5e-06,4.71,2
1069,0.0001,0.000104,4e-06,3.71,2
1070,0.000111,0.000112,1e-06,1.34,2
1071,0.000166,0.000166,-0.0,-0.12,2
1072,6.1e-05,6.2e-05,1e-06,1.08,2
1073,6.1e-05,6.1e-05,0.0,0.13,2
1074,6.2e-05,6.5e-05,3e-06,5.18,2
1075,8.5e-05,9e-05,4e-06,5.24,2
1076,7.2e-05,7e-05,-1e-06,-1.96,2
1077,7.3e-05,7.5e-05,2e-06,2.64,2
1078,0.000154,0.000156,2e-06,1.53,2
1079,0.000198,0.000191,-7e-06,-3.62,2
1080,8.5e-05,8.5e-05,-0.0,-0.42,2
1081,7.5e-05,7.8e-05,3e-06,4.24,2
1082,5.8e-05,6.2e-05,4e-06,7.67,2
1083,8.5e-05,8.9e-05,4e-06,4.59,2
1084,6.5e-05,6.6e-05,1e-06,2.21,2
1085,8.2e-05,8.5e-05,2e-06,3.04,2
1086,9.6e-05,9.9e-05,4e-06,4.1,2
1087,0.000198,0.000192,-6e-06,-2.92,2
1088,7.1e-05,7e-05,-1e-06,-1.15,2
1089,7.6e-05,7.9e-05,4e-06,4.68,2
1090,6.6e-05,6.6e-05,0.0,0.57,2
1091,0.000186,0.000197,1.1e-05,5.73,2
1092,8.8e-05,8.7e-05,-0.0,-0.16,2
1093,0.000102,0.000105,3e-06,3.23,2
1094,8.6e-05,8.9e-05,3e-06,3.14,2
1095,0.000124,0.000127,3e-06,2.76,2
1096,6.8e-05,6.8e-05,-0.0,-0.34,2
1097,6.3e-05,6.3e-05,-0.0,-0.23,2
1098,6.2e-05,6.5e-05,3e-06,5.14,2
1099,7.5e-05,7.9e-05,4e-06,5.42,2
1100,0.000114,0.00012,6e-06,5.09,2
1101,9.3e-05,0.000102,9e-06,9.74,2
1102,0.000101,0.000106,5e-06,5.19,2
1103,0.000147,0.000147,0.0,0.14,2
1104,9.5e-05,9.5e-05,0.0,0.33,2
1105,7.5e-05,7.7e-05,3e-06,3.57,2
1106,5.8e-05,6.2e-05,4e-06,7.31,2
1107,0.000108,0.000109,1e-06,1.36,2
1108,9.6e-05,9.6e-05,-0.0,-0.26,2
1109,8.5e-05,8.3e-05,-2e-06,-2.08,2
1110,0.000147,0.000161,1.4e-05,9.25,2
1111,0.000124,0.000127,3e-06,2.82,2
1112,7.1e-05,7e-05,-0.0,-0.59,2
1113,6.1e-05,6.1e-05,0.0,0.1,2
1114,6.1e-05,5.9e-05,-2e-06,-3.91,2
1115,7.7e-05,8.2e-05,5e-06,6.77,2
1116,8.8e-05,8.8e-05,0.0,0.02,2
1117,6.6e-05,6.6e-05,0.0,0.26,2
1118,9.6e-05,9.9e-05,4e-06,4.06,2
1119,0.000166,0.000166,-0.0,-0.11,2
1120,7.1e-05,6.8e-05,-3e-06,-4.36,2
1121,6.3e-05,6.3e-05,-0.0,-0.06,2
1122,6.6e-05,6.6e-05,0.0,0.53,2
1123,0.000108,0.000109,1e-06,1.32,2
1124,6.5e-05,6.6e-05,1e-06,2.23,2
1125,8.5e-05,8.4e-05,-2e-06,-1.78,2
1126,9e-05,9.3e-05,3e-06,2.98,2
1127,0.000143,0.000147,4e-06,2.51,2
1128,7.1e-05,7.1e-05,-0.0,-0.27,2
1129,6.1e-05,6e-05,-1e-06,-1.4,2
1130,6.1e-05,5.9e-05,-2e-06,-3.7,2
1131,7.5e-05,7.9e-05,4e-06,4.96,2
1132,9.6e-05,9.6e-05,-0.0,-0.05,2
1133,9.3e-05,0.000101,9e-06,9.34,2
1134,0.000101,0.000106,5e-06,5.19,2
1135,0.000132,0.000131,-1e-06,-0.41,2
1136,9.8e-05,9.9e-05,1e-06,0.88,2
1137,4.9e-05,5.1e-05,3e-06,5.28,2
1138,6.2e-05,7.1e-05,9e-06,14.54,2
1139,7.7e-05,8.3e-05,6e-06,8.43,2
1140,7.8e-05,8e-05,3e-06,3.38,2
1141,8.6e-05,8.8e-05,3e-06,3.14,2
1142,9.6e-05,9.9e-05,4e-06,4.05,2
1143,0.000189,0.00019,1e-06,0.35,2
1144,8.5e-05,8.5e-05,-0.0,-0.12,2
1145,4.9e-05,5.1e-05,2e-06,4.71,2
1146,4.1e-05,4.2e-05,2e-06,4.4,2
1147,7.7e-05,8.2e-05,6e-06,7.5,2
1148,7.8e-05,8e-05,3e-06,3.33,2
1149,7.3e-05,7.5e-05,2e-06,2.76,2
1150,0.000105,0.00011,4e-06,3.95,2
1151,0.000189,0.00019,1e-06,0.51,2
1152,8.5e-05,8.5e-05,0.0,0.18,2
1153,6.6e-05,7.1e-05,5e-06,7.15,2
1154,4.1e-05,4.2e-05,2e-06,4.12,2
1155,9.9e-05,0.000103,4e-06,4.39,2
1156,7.8e-05,8e-05,3e-06,3.26,2
1157,7.2e-05,7.8e-05,6e-06,8.68,2
1158,0.000147,0.00016,1.3e-05,8.69,2
1159,0.00014,0.000139,-1e-06,-0.84,2
1160,7.6e-05,7.4e-05,-2e-06,-2.58,2
1161,6.3e-05,6.6e-05,3e-06,5.33,2
1162,6.2e-05,6.5e-05,3e-06,4.93,2
1163,7.7e-05,8.2e-05,5e-06,6.8,2
1164,7.2e-05,7.1e-05,-1e-06,-1.34,2
1165,7.3e-05,7.5e-05,2e-06,2.78,2
1166,0.000249,0.000253,4e-06,1.48,2
1167,0.000124,0.000127,4e-06,2.92,2
1168,6.1e-05,6.2e-05,1e-06,1.15,2
1169,7.6e-05,8.1e-05,5e-06,6.42,2
1170,8e-05,8.2e-05,2e-06,2.44,2
1171,8.7e-05,8.7e-05,0.0,0.02,2
1172,0.000114,0.00012,6e-06,5.43,2
1173,0.000152,0.000155,4e-06,2.57,2
1174,0.000154,0.000156,2e-06,1.51,2
1175,0.00014,0.000139,-0.0,-0.24,2
1176,8.5e-05,8.6e-05,0.0,0.52,2
1177,6.6e-05,7.1e-05,5e-06,7.03,2
1178,6.6e-05,6.6e-05,0.0,0.62,2
1179,9.9e-05,0.000103,4e-06,4.41,2
1180,7.8e-05,8e-05,2e-06,3.22,2
1181,0.0001,0.000103,4e-06,3.58,2
1182,0.000113,0.000112,-1e-06,-0.88,2
1183,0.000151,0.000151,0.0,0.15,2
1184,8.5e-05,8.6e-05,1e-06,0.77,2
1185,7.6e-05,7.9e-05,3e-06,4.12,2
1186,7.1e-05,7.6e-05,4e-06,5.93,2
1187,0.000108,0.000109,1e-06,1.14,2
1188,7.6e-05,7.8e-05,2e-06,2.63,2
1189,8.6e-05,8.8e-05,3e-06,3.03,2
1190,9.6e-05,9.9e-05,4e-06,4.12,2
1191,0.000198,0.000193,-5e-06,-2.68,2
1192,8.1e-05,8e-05,-0.0,-0.28,2
1193,6.7e-05,7.1e-05,4e-06,6.01,2
1194,6.5e-05,6.7e-05,2e-06,3.1,2
1195,8.5e-05,8.8e-05,3e-06,3.87,2
1196,8.1e-05,8.4e-05,3e-06,4.25,2
1197,7.2e-05,7.8e-05,6e-06,8.59,2
1198,0.000154,0.000156,2e-06,1.6,2
1199,0.000198,0.000194,-4e-06,-2.17,2
1200,9.3e-05,8.5e-05,-8e-06,-8.69,4
1201,6.8e-05,7.7e-05,9e-06,13.38,4
1202,8.7e-05,8.4e-05,-3e-06,-3.19,4
1203,8.1e-05,9.1e-05,1e-05,12.36,4
1204,7.7e-05,8.2e-05,5e-06,5.87,4
1205,0.0001,9.7e-05,-3e-06,-3.42,4
1206,8.2e-05,0.000101,1.9e-05,22.7,4
1207,9.7e-05,9e-05,-7e-06,-7.55,4
1208,6.9e-05,6.7e-05,-2e-06,-2.92,4
1209,6.8e-05,7e-05,2e-06,3.01,4
1210,6.5e-05,8e-05,1.5e-05,23.25,4
1211,9.1e-05,0.000103,1.2e-05,12.83,4
1212,7.8e-05,8.9e-05,1.1e-05,13.93,4
1213,5e-05,5.5e-05,5e-06,9.17,4
1214,8.6e-05,8.8e-05,2e-06,2.86,4
1215,0.000137,0.000121,-1.5e-05,-11.3,4
1216,9.3e-05,8.8e-05,-5e-06,-5.5,4
1217,0.00011,0.000103,-7e-06,-6.26,4
1218,9.1e-05,9.2e-05,2e-06,1.8,4
1219,9.1e-05,0.000101,1e-05,10.52,4
1220,5.9e-05,5.9e-05,0.0,0.64,4
1221,7.5e-05,8.2e-05,8e-06,10.6,4
1222,8.6e-05,8.9e-05,3e-06,4.04,4
1223,9.7e-05,9e-05,-7e-06,-7.19,4
1224,6.2e-05,6.8e-05,6e-06,9.56,4
1225,7.4e-05,7.2e-05,-2e-06,-2.71,4
1226,6.4e-05,7.1e-05,7e-06,10.88,4
1227,0.000108,9.8e-05,-1e-05,-9.23,4
1228,7.6e-05,7.9e-05,3e-06,4.44,4
1229,8.2e-05,7.9e-05,-4e-06,-4.42,4
1230,8.2e-05,8.5e-05,3e-06,4.2,4
1231,0.000137,0.00012,-1.7e-05,-12.2,4
1232,9.8e-05,0.000101,2e-06,2.27,4
1233,7.5e-05,8.3e-05,8e-06,10.56,4
1234,8.5e-05,9.2e-05,7e-06,7.94,4
1235,0.000106,0.000104,-1e-06,-1.28,4
1236,7.6e-05,7.7e-05,2e-06,2.25,4
1237,7.2e-05,7.5e-05,3e-06,3.76,4
1238,8.5e-05,8.7e-05,3e-06,3.02,4
1239,9.1e-05,9.4e-05,3e-06,3.33,4
1240,0.000101,9.4e-05,-7e-06,-7.1,4
1241,0.000116,0.000121,5e-06,3.87,4
1242,6.1e-05,6.2e-05,1e-06,1.88,4
1243,9.9e-05,9.1e-05,-8e-06,-8.05,4
1244,5.9e-05,5.6e-05,-3e-06,-4.9,4
1245,9e-05,9.1e-05,2e-06,1.84,4
1246,0.000119,0.000108,-1.1e-05,-9.38,4
1247,0.000106,0.000103,-3e-06,-2.53,4
1248,0.000105,8.4e-05,-2.1e-05,-19.71,4
1249,6.7e-05,6.9e-05,2e-06,3.09,4
1250,9.6e-05,0.000112,1.6e-05,17.01,4
1251,0.000228,0.000205,-2.3e-05,-10.23,4
1252,7.7e-05,7.9e-05,2e-06,2.53,4
1253,0.000119,0.000108,-1.1e-05,-9.6,4
1254,9.5e-05,9.4e-05,-1e-06,-0.58,4
1255,9.7e-05,9.2e-05,-5e-06,-5.24,4
1256,7.3e-05,7.3e-05,0.0,0.48,4
1257,7.5e-05,7.9e-05,4e-06,5.7,4
1258,4.8e-05,5.3e-05,5e-06,10.97,4
1259,9.9e-05,0.000101,2e-06,2.35,4
1260,5.9e-05,6.6e-05,7e-06,12.16,4
1261,8.2e-05,7.9e-05,-3e-06,-3.88,4
1262,8.9e-05,9.6e-05,7e-06,8.17,4
1263,0.00013,0.00011,-2e-05,-15.58,4
1264,6.9e-05,7.9e-05,1e-05,14.16,4
1265,0.000116,0.000112,-4e-06,-3.54,4
1266,6.1e-05,6e-05,-2e-06,-2.77,4
1267,0.000106,0.000105,-0.0,-0.26,4
1268,7.7e-05,7.8e-05,1e-06,1.76,4
1269,9e-05,9.4e-05,4e-06,4.47,4
1270,9.3e-05,9e-05,-3e-06,-3.58,4
1271,0.00013,0.00012,-1e-05,-7.71,4
1272,6.2e-05,6.3e-05,1e-06,1.18,4
1273,6.7e-05,6.6e-05,-0.0,-0.75,4
1274,9.1e-05,9.2e-05,2e-06,1.89,4
1275,8.1e-05,7.8e-05,-3e-06,-3.95,4
1276,6.6e-05,6.5e-05,-2e-06,-2.95,4
1277,8.3e-05,8.9e-05,6e-06,7.39,4
1278,8e-05,8.4e-05,4e-06,4.91,4
1279,9.7e-05,9.3e-05,-4e-06,-4.28,4
1280,7e-05,6.9e-05,-1e-06,-0.95,4
1281,6.8e-05,6.7e-05,-1e-06,-1.55,4
1282,6.5e-05,6.8e-05,2e-06,3.78,4
1283,5.9e-05,6.8e-05,9e-06,14.43,4
1284,6.6e-05,6.4e-05,-2e-06,-3.26,4
1285,5e-05,4.9e-05,-2e-06,-3.48,4
1286,9.5e-05,9.5e-05,0.0,0.19,4
1287,0.000132,0.000119,-1.3e-05,-10.0,4
1288,7.3e-05,7e-05,-3e-06,-4.38,4
1289,7.4e-05,7.2e-05,-2e-06,-2.1,4
1290,6.5e-05,6.6e-05,1e-06,1.85,4
1291,8.2e-05,8.7e-05,4e-06,5.43,4
1292,7.9e-05,7.6e-05,-4e-06,-4.54,4
1293,9e-05,9.3e-05,3e-06,3.05,4
1294,8.6e-05,9.1e-05,5e-06,5.73,4
1295,0.000106,0.000104,-2e-06,-1.85,4
1296,0.000106,0.000103,-3e-06,-3.25,4
1297,8.9e-05,9.3e-05,4e-06,4.53,4
1298,6.1e-05,5.9e-05,-3e-06,-4.15,4
1299,9.4e-05,0.0001,6e-06,6.76,4
1300,6.6e-05,6.4e-05,-2e-06,-2.98,4
1301,9e-05,9.2e-05,2e-06,2.73,4
1302,8e-05,8.3e-05,2e-06,3.09,4
1303,0.000106,0.000105,-1e-06,-0.8,4
1304,9.8e-05,9.9e-05,1e-06,0.58,4
1305,6.7e-05,6.5e-05,-1e-06,-1.88,4
1306,6.4e-05,6.5e-05,0.0,0.61,4
1307,5.9e-05,6.5e-05,5e-06,8.53,4
1308,5.9e-05,5.6e-05,-3e-06,-5.0,4
1309,7.2e-05,7.3e-05,0.0,0.54,4
1310,0.00011,0.000102,-7e-06,-6.81,4
1311,0.000137,0.000131,-6e-06,-4.45,4
1312,6.9e-05,6.6e-05,-3e-06,-3.91,4
1313,8.9e-05,9.2e-05,3e-06,3.14,4
1314,7.9e-05,7.9e-05,0.0,0.13,4
1315,8.1e-05,8.9e-05,8e-06,10.02,4
1316,5.9e-05,5.7e-05,-2e-06,-3.43,4
1317,5e-05,4.8e-05,-2e-06,-3.6,4
1318,9.8e-05,9.4e-05,-4e-06,-4.13,4
1319,0.000106,0.000108,2e-06,2.3,4
1320,6.2e-05,6.3e-05,1e-06,1.22,4
1321,6.8e-05,6.7e-05,-1e-06,-1.41,4
1322,6.5e-05,6.6e-05,1e-06,1.75,4
1323,8.1e-05,7.9e-05,-2e-06,-2.1,4
1324,5.9e-05,5.8e-05,-1e-06,-2.35,4
1325,7.2e-05,7.2e-05,0.0,0.17,4
1326,8.9e-05,9e-05,1e-06,1.6,4
1327,9e-05,9.3e-05,2e-06,2.52,4
1328,0.000105,9.5e-05,-1e-05,-9.3,4
1329,6.8e-05,6.7e-05,-1e-06,-1.35,4
1330,6.1e-05,5.9e-05,-2e-06,-3.68,4
1331,8.1e-05,8e-05,-1e-06,-1.62,4
1332,9.1e-05,8.9e-05,-2e-06,-2.44,4
1333,7.2e-05,7.2e-05,-0.0,-0.26,4
1334,9.5e-05,0.000101,6e-06,6.76,4
1335,0.00013,0.000125,-4e-06,-3.31,4
1336,7e-05,6.9e-05,-1e-06,-1.62,4
1337,6.8e-05,6.7e-05,-1e-06,-1.22,4
1338,9.8e-05,9.6e-05,-2e-06,-1.94,4
1339,8.9e-05,8.2e-05,-7e-06,-8.21,4
1340,7.7e-05,7.5e-05,-2e-06,-2.16,4
1341,7e-05,7.1e-05,1e-06,1.99,4
1342,0.000119,0.000121,2e-06,2.01,4
1343,9.3e-05,9e-05,-3e-06,-3.47,4
1344,9.8e-05,9.9e-05,0.0,0.45,4
1345,7.3e-05,7.7e-05,4e-06,4.85,4
1346,6.1e-05,5.9e-05,-2e-06,-3.19,4
1347,0.000108,0.0001,-8e-06,-7.34,4
1348,5.9e-05,5.8e-05,-1e-06,-1.1,4
1349,9e-05,9.3e-05,3e-06,3.19,4
1350,7.3e-05,7e-05,-4e-06,-5.15,4
1351,0.000137,0.000135,-2e-06,-1.41,4
1352,6.2e-05,6.3e-05,1e-06,1.15,4
1353,6.7e-05,6.5e-05,-1e-06,-1.81,4
1354,4.8e-05,5.1e-05,3e-06,6.11,4
1355,0.000108,0.000103,-6e-06,-5.14,4
1356,7.9e-05,7.6e-05,-3e-06,-3.83,4
1357,7.2e-05,7.2e-05,-0.0,-0.58,4
1358,8.5e-05,8.6e-05,1e-06,1.22,4
1359,0.000117,0.000111,-6e-06,-5.32,4
1360,0.000106,0.000104,-2e-06,-2.15,4
1361,8.9e-05,9.2e-05,3e-06,3.22,4
1362,6.5e-05,6.6e-05,1e-06,1.39,4
1363,0.000108,0.000104,-4e-06,-4.05,4
1364,8.7e-05,9.8e-05,1e-05,11.88,4
1365,0.000119,0.000114,-5e-06,-4.6,4
1366,0.00011,0.000107,-3e-06,-2.28,4
1367,0.000106,0.000109,4e-06,3.53,4
1368,6.9e-05,6.7e-05,-2e-06,-2.66,4
1369,5.3e-05,5.6e-05,3e-06,5.26,4
1370,4.8e-05,5e-05,2e-06,4.45,4
1371,9.4e-05,9.5e-05,1e-06,1.06,4
1372,8.7e-05,9.6e-05,9e-06,10.05,4
1373,8.2e-05,7.9e-05,-3e-06,-3.3,4
1374,9.3e-05,9.2e-05,-1e-06,-1.26,4
1375,9.7e-05,9.4e-05,-3e-06,-3.18,4
1376,7.6e-05,7.9e-05,4e-06,4.88,4
1377,8.9e-05,9.2e-05,2e-06,2.77,4
1378,8.5e-05,8.7e-05,2e-06,2.54,4
1379,9.4e-05,9.5e-05,1e-06,0.75,4
1380,7.9e-05,7.7e-05,-2e-06,-3.01,4
1381,8.3e-05,8.8e-05,5e-06,5.96,4
1382,0.00011,0.00011,-0.0,-0.23,4
1383,9.7e-05,9.4e-05,-3e-06,-2.74,4
1384,7e-05,6.8e-05,-2e-06,-2.24,4
1385,6.8e-05,6.7e-05,-1e-06,-1.66,4
1386,6.5e-05,6.6e-05,1e-06,0.8,4
1387,0.000106,0.000106,0.0,0.47,4
1388,7.7e-05,7.6e-05,-1e-06,-1.03,4
1389,0.000119,0.000116,-4e-06,-2.94,4
1390,7.3e-05,7.1e-05,-2e-06,-3.0,4
1391,0.00013,0.000128,-2e-06,-1.32,4
1392,0.000106,0.000104,-2e-06,-1.69,4
1393,7.4e-05,7.1e-05,-3e-06,-3.66,4
1394,6.5e-05,6.5e-05,0.0,0.49,4
1395,8.1e-05,8e-05,-1e-06,-1.33,4
1396,7.7e-05,7.6e-05,-1e-06,-0.72,4
1397,9e-05,9.3e-05,3e-06,3.35,4
1398,8.2e-05,8.2e-05,0.0,0.09,4
1399,9e-05,9.3e-05,3e-06,2.96,4
1400,7.6e-05,7.7e-05,2e-06,2.25,4
1401,7.1e-05,6.8e-05,-3e-06,-3.94,4
1402,6.1e-05,6e-05,-1e-06,-2.1,4
1403,0.000228,0.000221,-7e-06,-2.98,4
1404,8.7e-05,9.4e-05,7e-06,7.84,4
1405,0.0001,9.7e-05,-3e-06,-3.23,4
1406,0.00011,0.000111,1e-06,0.98,4
1407,0.000106,0.000109,3e-06,3.17,4
1408,6.2e-05,6.2e-05,0.0,0.37,4
1409,7.3e-05,7.5e-05,2e-06,2.49,4
1410,9.6e-05,0.000112,1.6e-05,16.9,4
1411,9.1e-05,9.5e-05,4e-06,3.86,4
1412,8.8e-05,8.7e-05,-1e-06,-1.22,4
1413,8.2e-05,8e-05,-2e-06,-2.4,4
1414,0.00011,0.000112,2e-06,1.63,4
1415,9.3e-05,9.3e-05,-0.0,-0.16,4
1416,7.6e-05,7.7e-05,1e-06,1.13,4
1417,7.1e-05,6.8e-05,-3e-06,-3.84,4
1418,9.8e-05,9.6e-05,-1e-06,-1.3,4
1419,8.1e-05,8.7e-05,6e-06,7.77,4
1420,9.1e-05,8.9e-05,-2e-06,-2.15,4
1421,7.5e-05,7.5e-05,1e-06,1.06,4
1422,8e-05,8.3e-05,3e-06,3.25,4
1423,0.000137,0.000137,0.0,0.13,4
1424,7e-05,6.8e-05,-2e-06,-2.2,4
1425,5.3e-05,5.4e-05,1e-06,1.63,4
1426,8.5e-05,8.6e-05,2e-06,1.89,4
1427,0.000106,0.000106,1e-06,0.52,4
1428,5.9e-05,6.2e-05,3e-06,5.41,4
1429,8.2e-05,8.1e-05,-1e-06,-1.75,4
1430,0.000119,0.000123,4e-06,3.4,4
1431,9.1e-05,9.1e-05,-0.0,-0.2,4
1432,8.2e-05,7.9e-05,-3e-06,-3.85,4
1433,0.000116,0.000113,-3e-06,-2.66,4
1434,6.4e-05,6.4e-05,-0.0,-0.42,4
1435,9.9e-05,9.7e-05,-2e-06,-2.0,4
1436,7.7e-05,7.7e-05,1e-06,0.65,4
1437,7.5e-05,7.5e-05,1e-06,1.14,4
1438,9.3e-05,9.3e-05,-0.0,-0.12,4
1439,9e-05,9.3e-05,2e-06,2.39,4
1440,0.000101,9.7e-05,-4e-06,-3.82,4
1441,6.7e-05,6.6e-05,-1e-06,-1.18,4
1442,8.7e-05,8.4e-05,-3e-06,-3.32,4
1443,0.000108,0.000105,-4e-06,-3.3,4
1444,7.7e-05,7.8e-05,1e-06,0.74,4
1445,0.0001,9.9e-05,-1e-06,-1.25,4
1446,7.9e-05,8.4e-05,5e-06,6.52,4
1447,0.000117,0.000113,-4e-06,-3.18,4
1448,8.2e-05,7.9e-05,-3e-06,-3.5,4
1449,0.000116,0.000115,-2e-06,-1.52,4
1450,6.5e-05,6.5e-05,0.0,0.09,4
1451,8.9e-05,8.3e-05,-6e-06,-6.64,4
1452,9.1e-05,9e-05,-1e-06,-1.42,4
1453,8.3e-05,8.8e-05,5e-06,5.88,4
1454,9.5e-05,0.000101,7e-06,6.96,4
1455,0.000137,0.000139,2e-06,1.2,4
1456,9.3e-05,8.9e-05,-5e-06,-5.12,4
1457,0.000116,0.000115,-1e-06,-0.9,4
1458,6.4e-05,6.4e-05,-1e-06,-0.79,4
1459,0.000228,0.000224,-4e-06,-1.81,4
1460,8.7e-05,9.3e-05,5e-06,6.18,4
1461,8e-05,8.5e-05,5e-06,6.18,4
1462,0.000119,0.000123,4e-06,3.58,4
1463,9e-05,9.2e-05,2e-06,1.91,4
1464,7.3e-05,7e-05,-4e-06,-4.88,4
1465,7.4e-05,7.1e-05,-2e-06,-3.31,4
1466,6.1e-05,6.1e-05,-0.0,-0.3,4
1467,9.9e-05,9.7e-05,-2e-06,-2.07,4
1468,5.9e-05,5.9e-05,-0.0,-0.29,4
1469,7e-05,7.1e-05,1e-06,1.08,4
1470,8e-05,8.3e-05,3e-06,3.52,4
1471,9.7e-05,9.6e-05,-1e-06,-1.21,4
1472,9.3e-05,9e-05,-4e-06,-4.04,4
1473,6.8e-05,6.7e-05,-1e-06,-1.72,4
1474,6.5e-05,6.5e-05,-0.0,-0.26,4
1475,0.000106,0.000106,0.0,0.2,4
1476,8.7e-05,9.2e-05,5e-06,5.26,4
1477,8.3e-05,8.8e-05,5e-06,5.72,4
1478,9.5e-05,0.000101,6e-06,6.41,4
1479,0.000106,0.000106,0.0,0.39,4
1480,9.8e-05,9.7e-05,-1e-06,-1.29,4
1481,0.000116,0.000116,-0.0,-0.27,4
1482,6.5e-05,6.5e-05,-0.0,-0.33,4
1483,0.000228,0.000226,-2e-06,-0.78,4
1484,7.8e-05,7.8e-05,-0.0,-0.01,4
1485,9e-05,9.3e-05,3e-06,3.51,4
1486,8.2e-05,8.2e-05,0.0,0.59,4
1487,0.000137,0.00014,2e-06,1.73,4
1488,0.000106,0.000104,-2e-06,-1.54,4
1489,7.3e-05,7.4e-05,1e-06,1.17,4
1490,6.5e-05,6.8e-05,3e-06,4.21,4
1491,8.1e-05,8.1e-05,-0.0,-0.27,4
1492,7.7e-05,7.6e-05,-1e-06,-0.81,4
1493,8e-05,8.3e-05,3e-06,4.03,4
1494,8.6e-05,9e-05,4e-06,4.97,4
1495,9.1e-05,9.1e-05,-0.0,-0.33,4
1496,0.000105,0.0001,-5e-06,-4.62,4
1497,6.8e-05,6.7e-05,-1e-06,-1.67,4
1498,8.7e-05,8.5e-05,-2e-06,-2.6,4
1499,8.1e-05,8.1e-05,-0.0,-0.02,4
1500,5.9e-05,5.9e-05,-0.0,-0.03,4
1501,7.2e-05,7.2e-05,-0.0,-0.49,4
1502,9.5e-05,0.000101,6e-06,6.35,4
1503,0.000106,0.000109,3e-06,2.74,4
1504,9.3e-05,9e-05,-3e-06,-3.43,4
1505,9.1e-05,9.1e-05,-0.0,-0.15,4
1506,7.9e-05,7.8e-05,-1e-06,-1.39,4
1507,8.9e-05,8.5e-05,-5e-06,-5.24,4
1508,5.9e-05,6e-05,1e-06,2.23,4
1509,9e-05,9.3e-05,3e-06,3.47,4
1510,9.8e-05,9.8e-05,0.0,0.14,4
1511,0.000106,0.000107,1e-06,1.24,4
1512,9.3e-05,9.1e-05,-3e-06,-2.97,4
1513,9.1e-05,9e-05,-0.0,-0.28,4
1514,9.6e-05,0.00011,1.4e-05,14.75,4
1515,0.000228,0.000228,-0.0,-0.04,4
1516,6.6e-05,6.5e-05,-2e-06,-2.55,4
1517,8e-05,8.2e-05,2e-06,2.84,4
1518,0.00011,0.000113,3e-06,2.83,4
1519,9.1e-05,9.1e-05,0.0,0.06,4
1520,6.2e-05,6.2e-05,0.0,0.34,4
1521,6.7e-05,6.6e-05,-1e-06,-1.17,4
1522,7.9e-05,7.8e-05,-1e-06,-1.31,4
1523,8.2e-05,8.4e-05,1e-06,1.44,4
1524,7.9e-05,7.7e-05,-3e-06,-3.49,4
1525,7e-05,7e-05,1e-06,0.72,4
1526,9.3e-05,9.5e-05,2e-06,1.91,4
1527,0.00013,0.000129,-1e-06,-0.39,4
1528,6.2e-05,6.2e-05,0.0,0.2,4
1529,7.3e-05,7.4e-05,0.0,0.55,4
1530,6.1e-05,6.1e-05,-0.0,-0.02,4
1531,9.1e-05,9.3e-05,2e-06,2.3,4
1532,7.7e-05,7.6e-05,-0.0,-0.63,4
1533,7.5e-05,7.6e-05,1e-06,1.49,4
1534,7.9e-05,8.3e-05,4e-06,4.71,4
1535,9.1e-05,9.1e-05,0.0,0.19,4
1536,7e-05,6.9e-05,-1e-06,-1.58,4
1537,0.000116,0.000116,-0.0,-0.16,4
1538,8.7e-05,8.5e-05,-2e-06,-1.95,4
1539,8.1e-05,8.1e-05,0.0,0.09,4
1540,9.1e-05,8.2e-05,-9e-06,-10.25,4
1541,0.0001,9.9e-05,-1e-06,-0.72,4
1542,7.3e-05,7.2e-05,-2e-06,-2.19,4
1543,0.00013,0.00013,0.0,0.32,4
1544,6.2e-05,6.2e-05,0.0,0.15,4
1545,0.00011,0.00011,-0.0,-0.11,4
1546,8.5e-05,8.7e-05,2e-06,1.95,4
1547,9.1e-05,9.3e-05,2e-06,2.23,4
1548,9.1e-05,8.4e-05,-7e-06,-8.18,4
1549,5e-05,5e-05,-1e-06,-1.48,4
1550,9.3e-05,9.5e-05,2e-06,2.05,4
1551,9e-05,9.2e-05,2e-06,1.66,4
1552,7.6e-05,7.6e-05,0.0,0.34,4
1553,7.4e-05,7.2e-05,-2e-06,-3.05,4
1554,6.4e-05,6.3e-05,-1e-06,-1.18,4
1555,9.9e-05,9.7e-05,-2e-06,-1.89,4
1556,7.8e-05,7.7e-05,-0.0,-0.59,4
1557,5e-05,5e-05,-1e-06,-1.21,4
1558,7.9e-05,8.2e-05,3e-06,3.23,4
1559,9.3e-05,9.2e-05,-0.0,-0.44,4
1560,6.2e-05,6.2e-05,0.0,0.05,4
1561,7.4e-05,7.2e-05,-2e-06,-2.67,4
1562,9.8e-05,9.7e-05,-1e-06,-0.65,4
1563,0.000228,0.000229,1e-06,0.47,4
1564,9.1e-05,8.4e-05,-7e-06,-7.31,4
1565,5e-05,5e-05,-1e-06,-1.05,4
1566,8.6e-05,9e-05,4e-06,4.88,4
1567,8.5e-05,8.1e-05,-4e-06,-4.24,4
1568,6.9e-05,6.8e-05,-1e-06,-1.42,4
1569,9.1e-05,9.1e-05,0.0,0.25,4
1570,7.9e-05,7.8e-05,-1e-06,-0.89,4
1571,9.9e-05,9.8e-05,-1e-06,-1.49,4
1572,7.9e-05,7.7e-05,-3e-06,-3.31,4
1573,8.2e-05,8.1e-05,-2e-06,-1.89,4
1574,0.000119,0.000124,5e-06,4.23,4
1575,8.5e-05,8.1e-05,-4e-06,-4.57,4
1576,0.000101,9.7e-05,-4e-06,-4.07,4
1577,5.3e-05,5.4e-05,1e-06,1.22,4
1578,4.8e-05,5e-05,2e-06,4.35,4
1579,9.4e-05,9.4e-05,0.0,0.21,4
1580,5.9e-05,5.9e-05,0.0,0.62,4
1581,7e-05,7.1e-05,1e-06,1.31,4
1582,8.6e-05,9e-05,4e-06,4.62,4
1583,9.3e-05,9.2e-05,-0.0,-0.49,4
1584,8.2e-05,8e-05,-2e-06,-2.83,4
1585,7.5e-05,7.7e-05,3e-06,3.38,4
1586,9.8e-05,9.7e-05,-0.0,-0.38,4
1587,8.1e-05,8.6e-05,5e-06,5.64,4
1588,9.1e-05,8.5e-05,-7e-06,-7.16,4
1589,8.5e-05,8.6e-05,1e-06,1.62,4
1590,7.9e-05,8.1e-05,2e-06,2.35,4
1591,9e-05,9.2e-05,1e-06,1.39,4
1592,6.9e-05,6.8e-05,-1e-06,-1.18,4
1593,0.00011,0.000111,1e-06,0.83,4
1594,9.8e-05,9.7e-05,-0.0,-0.15,4
1595,0.000228,0.00023,2e-06,0.79,4
1596,5.9e-05,5.9e-05,1e-06,0.85,4
1597,9e-05,9.3e-05,3e-06,3.53,4
1598,9.5e-05,0.000101,6e-06,6.61,4
1599,0.000132,0.000128,-4e-06,-3.16,4
1600,6.2e-05,6.2e-05,0.0,0.06,4
1601,8.5e-05,8.5e-05,1e-06,0.75,4
1602,6.5e-05,6.5e-05,-0.0,-0.7,4
1603,0.000108,0.000106,-2e-06,-2.27,4
1604,7.7e-05,7.8e-05,1e-06,0.73,4
1605,7.5e-05,7.6e-05,1e-06,1.86,4
1606,8.9e-05,9.2e-05,4e-06,3.97,4
1607,0.000117,0.000116,-1e-06,-1.16,4
1608,7.6e-05,7.6e-05,0.0,0.06,4
1609,0.00011,0.000111,1e-06,1.13,4
1610,6.5e-05,6.7e-05,2e-06,3.24,4
1611,5.9e-05,6.3e-05,3e-06,5.29,4
1612,8.7e-05,9.1e-05,4e-06,4.45,4
1613,8.2e-05,8.1e-05,-1e-06,-1.7,4
1614,8.6e-05,8.9e-05,4e-06,4.12,4
1615,0.00013,0.000131,1e-06,0.84,4
1616,6.9e-05,6.8e-05,-1e-06,-1.04,4
1617,6.8e-05,6.7e-05,-1e-06,-1.71,4
1618,9.8e-05,9.8e-05,0.0,0.02,4
1619,9.9e-05,9.9e-05,-0.0,-0.23,4
1620,8.8e-05,8.5e-05,-2e-06,-2.63,4
1621,8.2e-05,8.1e-05,-1e-06,-1.38,4
1622,8.2e-05,8.2e-05,0.0,0.34,4
1623,0.00013,0.000131,1e-06,1.07,4
1624,9.3e-05,9.1e-05,-2e-06,-2.48,4
1625,7.5e-05,7.7e-05,2e-06,2.99,4
1626,6.5e-05,6.5e-05,-0.0,-0.77,4
1627,8.1e-05,8.1e-05,0.0,0.29,4
1628,7.7e-05,7.7e-05,0.0,0.06,4
1629,8.3e-05,8.8e-05,5e-06,5.44,4
1630,9.8e-05,9.9e-05,1e-06,1.31,4
1631,0.000132,0.000129,-3e-06,-2.14,4
1632,0.000101,9.8e-05,-3e-06,-3.03,4
1633,7.3e-05,7.3e-05,-0.0,-0.09,4
1634,8.5e-05,8.6e-05,1e-06,1.53,4
1635,0.000228,0.00023,2e-06,1.04,4
1636,7.7e-05,7.8e-05,1e-06,0.95,4
1637,8.2e-05,7.5e-05,-7e-06,-8.78,4
1638,7.3e-05,7.2e-05,-1e-06,-1.76,4
1639,8.5e-05,8.1e-05,-4e-06,-4.8,4
1640,7.3e-05,7e-05,-3e-06,-3.96,4
1641,0.000116,0.000117,0.0,0.11,4
1642,9.8e-05,9.8e-05,0.0,0.06,4
1643,8.1e-05,8.1e-05,0.0,0.38,4
1644,5.9e-05,6e-05,1e-06,1.06,4
1645,8.3e-05,8.8e-05,4e-06,5.15,4
1646,8.5e-05,8.4e-05,-1e-06,-1.11,4
1647,0.000132,0.00013,-2e-06,-1.46,4
1648,7.3e-05,7e-05,-3e-06,-3.87,4
1649,8.5e-05,8.4e-05,-0.0,-0.57,4
1650,6.1e-05,6.2e-05,0.0,0.69,4
1651,0.000108,0.000107,-2e-06,-1.72,4
1652,7.9e-05,7.7e-05,-2e-06,-2.89,4
1653,0.0001,0.0001,0.0,0.15,4
1654,0.000119,0.000124,5e-06,4.13,4
1655,0.000106,0.000108,2e-06,2.33,4
1656,7.6e-05,7.6e-05,-0.0,-0.07,4
1657,0.00011,0.000111,1e-06,1.14,4
1658,6.5e-05,6.7e-05,2e-06,2.86,4
1659,8.1e-05,8.5e-05,4e-06,4.8,4
1660,9.1e-05,8.5e-05,-6e-06,-6.28,4
1661,7.2e-05,7.2e-05,-0.0,-0.58,4
1662,8.9e-05,9.2e-05,3e-06,3.92,4
1663,9.7e-05,9.6e-05,-1e-06,-0.61,4
1664,9.3e-05,9.1e-05,-2e-06,-2.16,4
1665,7.3e-05,7.3e-05,-0.0,-0.35,4
1666,6.1e-05,6.2e-05,0.0,0.58,4
1667,5.9e-05,6.2e-05,3e-06,4.27,4
1668,6.6e-05,6.5e-05,-1e-06,-1.98,4
1669,7.5e-05,7.7e-05,2e-06,2.72,4
1670,9.5e-05,0.000101,6e-06,6.38,4
1671,9.3e-05,9.2e-05,-0.0,-0.4,4
1672,0.000101,9.9e-05,-3e-06,-2.49,4
1673,6.7e-05,6.6e-05,-0.0,-0.64,4
1674,9.6e-05,0.000108,1.2e-05,12.74,4
1675,0.000106,0.000105,-1e-06,-0.76,4
1676,7.9e-05,7.8e-05,-2e-06,-2.42,4
1677,9e-05,9.3e-05,3e-06,3.5,4
1678,7.9e-05,8.1e-05,2e-06,2.05,4
1679,0.00013,0.000132,2e-06,1.41,4
1680,7.3e-05,7e-05,-3e-06,-3.67,4
1681,7.4e-05,7.2e-05,-2e-06,-2.28,4
1682,6.6e-05,6.9e-05,4e-06,5.36,4
1683,9.1e-05,9.3e-05,2e-06,2.19,4
1684,7.7e-05,7.7e-05,0.0,0.17,4
1685,7.5e-05,7.7e-05,2e-06,2.92,4
1686,8.2e-05,8.2e-05,0.0,0.13,4
1687,9.3e-05,9.3e-05,-0.0,-0.11,4
1688,9.3e-05,9.2e-05,-2e-06,-1.96,4
1689,8.9e-05,9.2e-05,2e-06,2.43,4
1690,9.6e-05,0.000107,1.1e-05,11.45,4
1691,8.1e-05,8.1e-05,0.0,0.44,4
1692,7.7e-05,7.7e-05,0.0,0.2,4
1693,7.2e-05,7.2e-05,-0.0,-0.3,4
1694,0.000119,0.000124,5e-06,4.04,4
1695,0.000117,0.000117,-0.0,-0.0,4
1696,7.6e-05,7.6e-05,-0.0,-0.23,4
1697,7.4e-05,7.2e-05,-2e-06,-2.32,4
1698,6.5e-05,6.7e-05,2e-06,2.44,4
1699,9.9e-05,9.8e-05,-1e-06,-0.81,4
1700,7.7e-05,7.8e-05,1e-06,0.94,4
1701,0.0001,0.000101,0.0,0.45,4
1702,8.2e-05,8.2e-05,0.0,0.21,4
1703,8.5e-05,8.1e-05,-3e-06,-3.9,4
1704,7.6e-05,7.5e-05,-0.0,-0.35,4
1705,7.3e-05,7.3e-05,-1e-06,-0.74,4
1706,9.6e-05,0.000106,1e-05,10.4,4
1707,0.000228,0.000231,3e-06,1.2,4
1708,8.8e-05,8.6e-05,-2e-06,-2.13,4
1709,7e-05,7.1e-05,1e-06,1.74,4
1710,9.8e-05,0.0001,2e-06,1.72,4
1711,9.7e-05,9.7e-05,-0.0,-0.28,4
1712,7.3e-05,7.1e-05,-3e-06,-3.47,4
1713,0.000116,0.000116,-0.0,-0.17,4
1714,8.5e-05,8.6e-05,1e-06,1.56,4
1715,0.000106,0.000105,-1e-06,-0.55,4
1716,8.8e-05,8.6e-05,-1e-06,-1.55,4
1717,8.2e-05,7.4e-05,-7e-06,-8.98,4
1718,9.3e-05,9.5e-05,2e-06,2.51,4
1719,0.000117,0.000118,1e-06,0.67,4
1720,7e-05,6.9e-05,-1e-06,-1.26,4
1721,7.3e-05,7.3e-05,-1e-06,-0.75,4
1722,6.5e-05,6.4e-05,-1e-06,-0.97,4
1723,9.9e-05,9.9e-05,-1e-06,-0.58,4
1724,7.7e-05,7.7e-05,0.0,0.32,4
1725,7.2e-05,7.2e-05,-0.0,-0.28,4
1726,0.00011,0.000115,5e-06,4.35,4
1727,0.000106,0.000108,2e-06,1.99,4
1728,7.3e-05,7.1e-05,-3e-06,-3.45,4
1729,6.8e-05,6.7e-05,-1e-06,-1.66,4
1730,9.8e-05,9.8e-05,0.0,0.1,4
1731,8.2e-05,8.4e-05,1e-06,1.4,4
1732,7.8e-05,7.7e-05,-1e-06,-0.85,4
1733,8e-05,8.2e-05,2e-06,2.74,4
1734,8e-05,8.3e-05,3e-06,3.82,4
1735,8.5e-05,8.2e-05,-3e-06,-3.41,4
1736,6.9e-05,6.8e-05,-0.0,-0.72,4
1737,6.8e-05,6.7e-05,-1e-06,-1.52,4
1738,7.9e-05,7.8e-05,-0.0,-0.55,4
1739,8.1e-05,8.4e-05,3e-06,4.16,4
1740,7.8e-05,7.7e-05,-1e-06,-0.65,4
1741,0.000119,0.000116,-4e-06,-3.03,4
1742,8.2e-05,8.2e-05,0.0,0.21,4
1743,0.000132,0.000131,-2e-06,-1.23,4
1744,7.6e-05,7.5e-05,-0.0,-0.45,4
1745,7.3e-05,7.3e-05,-0.0,-0.63,4
1746,8.7e-05,8.5e-05,-1e-06,-1.72,4
1747,9.9e-05,9.9e-05,-0.0,-0.09,4
1748,7.8e-05,7.7e-05,-0.0,-0.39,4
1749,8.2e-05,7.5e-05,-6e-06,-7.77,4
1750,9.8e-05,0.0001,2e-06,1.66,4
1751,9e-05,9.2e-05,1e-06,1.59,4
1752,9.3e-05,9.2e-05,-2e-06,-1.66,4
1753,0.000116,0.000116,-0.0,-0.04,4
1754,8.7e-05,8.6e-05,-1e-06,-1.38,4
1755,8.1e-05,8.2e-05,1e-06,0.81,4
1756,7.9e-05,7.8e-05,-2e-06,-2.19,4
1757,5e-05,5e-05,-0.0,-0.55,4
1758,0.00011,0.000115,5e-06,4.54,4
1759,0.000137,0.000141,4e-06,2.65,4
1760,0.000105,0.000102,-3e-06,-2.4,4
1761,7.3e-05,7.3e-05,-0.0,-0.47,4
1762,4.8e-05,5e-05,2e-06,3.68,4
1763,9.9e-05,9.9e-05,-0.0,-0.28,4
1764,8.7e-05,9.1e-05,4e-06,4.15,4
1765,9e-05,9.3e-05,3e-06,3.36,4
1766,9.8e-05,0.0001,2e-06,1.74,4
1767,9e-05,9.2e-05,1e-06,1.37,4
1768,0.000106,0.000105,-1e-06,-1.12,4
1769,0.000116,0.000117,0.0,0.19,4
1770,6.5e-05,6.4e-05,-1e-06,-1.02,4
1771,8.1e-05,8.2e-05,1e-06,0.81,4
1772,6.6e-05,6.5e-05,-1e-06,-1.96,4
1773,7e-05,7.1e-05,1e-06,1.84,4
1774,7.9e-05,8e-05,1e-06,1.81,4
1775,0.000117,0.000118,1e-06,1.13,4
1776,7.3e-05,7.1e-05,-2e-06,-3.3,4
1777,7.4e-05,7.2e-05,-2e-06,-2.21,4
1778,6.1e-05,6.2e-05,1e-06,1.02,4
1779,8.9e-05,8.5e-05,-4e-06,-4.6,4
1780,5.9e-05,6e-05,1e-06,1.33,4
1781,0.0001,0.000101,1e-06,0.88,4
1782,8.2e-05,8.2e-05,0.0,0.24,4
1783,0.000106,0.000108,2e-06,2.06,4
1784,7e-05,6.9e-05,-1e-06,-1.14,4
1785,9.1e-05,9.1e-05,0.0,0.1,4
1786,8.5e-05,8.6e-05,1e-06,1.37,4
1787,9.1e-05,9.3e-05,2e-06,1.97,4
1788,8.7e-05,9.1e-05,3e-06,3.7,4
1789,8.3e-05,8.7e-05,4e-06,4.76,4
1790,8.5e-05,8.3e-05,-1e-06,-1.61,4
1791,0.000106,0.000108,2e-06,1.91,4
1792,9.8e-05,9.7e-05,-2e-06,-1.94,4
1793,0.000116,0.000117,0.0,0.26,4
1794,6.5e-05,6.4e-05,-1e-06,-1.01,4
1795,9.4e-05,9.5e-05,1e-06,0.56,4
1796,5.9e-05,6e-05,1e-06,2.29,4
1797,8e-05,8.2e-05,2e-06,2.41,4
1798,0.00011,0.000115,5e-06,4.4,4
1799,9.7e-05,9.7e-05,0.0,0.31,4
1800,7.6e-05,7.4e-05,-2e-06,-2.55,8
1801,9.1e-05,9.5e-05,4e-06,4.26,8
1802,8.8e-05,7.9e-05,-9e-06,-10.08,8
1803,0.000139,0.000145,6e-06,4.2,8
1804,7.5e-05,7.5e-05,-0.0,-0.12,8
1805,9.4e-05,0.000104,1e-05,10.49,8
1806,8.7e-05,9e-05,3e-06,3.08,8
1807,0.000122,0.000119,-4e-06,-2.92,8
1808,8.6e-05,9.1e-05,5e-06,5.43,8
1809,0.000148,0.000139,-9e-06,-6.13,8
1810,8.1e-05,8.4e-05,2e-06,2.96,8
1811,0.000116,0.000103,-1.3e-05,-10.84,8
1812,9.2e-05,0.000115,2.4e-05,25.7,8
1813,7.1e-05,7.3e-05,2e-06,2.38,8
1814,0.000137,0.000137,-0.0,-0.28,8
1815,9.7e-05,8.6e-05,-1e-05,-10.62,8
1816,7.7e-05,7.5e-05,-2e-06,-1.98,8
1817,9.1e-05,9.6e-05,5e-06,5.07,8
1818,0.000135,0.000129,-5e-06,-3.9,8
1819,0.0001,9.6e-05,-3e-06,-3.5,8
1820,6.4e-05,5.9e-05,-5e-06,-7.93,8
1821,0.00011,9e-05,-1.9e-05,-17.66,8
1822,8.7e-05,8.6e-05,-1e-06,-0.78,8
1823,0.000108,0.000118,1.1e-05,9.83,8
1824,8.6e-05,8.8e-05,2e-06,2.72,8
1825,8.8e-05,9.7e-05,9e-06,10.36,8
1826,8.1e-05,8.1e-05,-1e-06,-0.81,8
1827,0.00011,9.9e-05,-1.1e-05,-9.93,8
1828,6.4e-05,5.9e-05,-5e-06,-7.75,8
1829,7.1e-05,7.2e-05,1e-06,0.84,8
1830,0.000137,0.000142,5e-06,3.3,8
1831,0.000123,0.000102,-2.2e-05,-17.42,8
1832,8e-05,8.2e-05,2e-06,2.06,8
1833,0.000111,0.000103,-7e-06,-6.76,8
1834,7.4e-05,6.8e-05,-5e-06,-7.37,8
1835,0.000249,0.000233,-1.6e-05,-6.57,8
1836,7.5e-05,7.4e-05,-1e-06,-0.8,8
1837,7.8e-05,7.4e-05,-4e-06,-5.5,8
1838,7.5e-05,7.4e-05,-1e-06,-1.56,8
1839,0.000122,0.000117,-5e-06,-4.41,8
1840,7e-05,6.4e-05,-5e-06,-7.57,8
1841,9.4e-05,9.8e-05,4e-06,3.91,8
1842,9.9e-05,0.000102,3e-06,3.51,8
1843,0.00014,0.00013,-1e-05,-7.14,8
1844,7.5e-05,7.4e-05,-1e-06,-1.09,8
1845,0.00011,0.000109,-1e-06,-0.61,8
1846,0.000102,9.8e-05,-4e-06,-3.47,8
1847,0.000135,0.000126,-8e-06,-6.16,8
1848,7.1e-05,7.5e-05,4e-06,5.6,8
1849,8.8e-05,8.9e-05,1e-06,1.48,8
1850,8.1e-05,8e-05,-1e-06,-1.49,8
1851,0.000249,0.000242,-7e-06,-2.81,8
1852,6.8e-05,7.5e-05,8e-06,11.43,8
1853,0.00011,9.7e-05,-1.3e-05,-11.7,8
1854,0.000114,0.000116,2e-06,2.07,8
1855,0.000115,0.000104,-1.1e-05,-9.91,8
1856,8e-05,7.9e-05,-1e-06,-1.18,8
1857,9.1e-05,9.2e-05,1e-06,0.62,8
1858,8e-05,8.2e-05,2e-06,2.63,8
1859,0.00011,0.000106,-4e-06,-3.97,8
1860,7.5e-05,7.6e-05,1e-06,1.09,8
1861,0.000128,0.000133,5e-06,3.57,8
1862,8.7e-05,8.4e-05,-3e-06,-3.96,8
1863,0.000122,0.000118,-5e-06,-3.89,8
1864,9.1e-05,8.6e-05,-5e-06,-5.74,8
1865,0.000114,0.000109,-5e-06,-4.75,8
1866,8.8e-05,9.4e-05,6e-06,6.73,8
1867,0.00011,0.000107,-3e-06,-2.76,8
1868,6.8e-05,7.2e-05,5e-06,6.78,8
1869,0.000105,0.000106,1e-06,1.23,8
1870,8.7e-05,8.5e-05,-2e-06,-1.95,8
1871,0.000143,0.00014,-3e-06,-1.94,8
1872,8e-05,7.8e-05,-1e-06,-1.83,8
1873,0.000111,0.000105,-6e-06,-5.22,8
1874,6.7e-05,6.9e-05,1e-06,2.09,8
1875,0.000101,9.8e-05,-3e-06,-3.21,8
1876,9.2e-05,9.6e-05,5e-06,4.95,8
1877,0.000105,0.000106,2e-06,1.51,8
1878,8.7e-05,8.5e-05,-2e-06,-1.97,8
1879,0.000122,0.000119,-4e-06,-2.93,8
1880,9.4e-05,9.3e-05,-0.0,-0.43,8
1881,9.1e-05,9.1e-05,0.0,0.04,8
1882,0.000104,0.000102,-2e-06,-1.53,8
1883,0.00011,0.000107,-3e-06,-2.33,8
1884,6.4e-05,5.9e-05,-5e-06,-8.14,8
1885,8.1e-05,8.2e-05,2e-06,2.1,8
1886,0.000114,0.000114,-0.0,-0.12,8
1887,0.000123,0.000113,-1.1e-05,-8.77,8
1888,8.6e-05,8.7e-05,1e-06,1.19,8
1889,8.3e-05,8.6e-05,3e-06,3.76,8
1890,7.4e-05,7.2e-05,-2e-06,-2.89,8
1891,0.00011,0.000107,-3e-06,-2.59,8
1892,9.2e-05,9.4e-05,3e-06,2.93,8
1893,9.2e-05,9.4e-05,2e-06,2.22,8
1894,0.000102,0.0001,-2e-06,-1.68,8
1895,0.000125,0.000115,-9e-06,-7.43,8
1896,8.1e-05,8.1e-05,0.0,0.52,8
1897,0.0001,9.7e-05,-2e-06,-2.16,8
1898,9.4e-05,8.8e-05,-6e-06,-6.28,8
1899,0.000139,0.000141,2e-06,1.33,8
1900,7.5e-05,7.3e-05,-1e-06,-1.62,8
1901,8.1e-05,8.2e-05,1e-06,1.04,8
1902,8.7e-05,8.5e-05,-2e-06,-1.73,8
1903,0.000125,0.000122,-3e-06,-2.45,8
1904,8e-05,7.8e-05,-2e-06,-2.09,8
1905,0.0001,9.8e-05,-1e-06,-1.48,8
1906,7.4e-05,7.2e-05,-2e-06,-2.7,8
1907,0.000249,0.000246,-3e-06,-1.34,8
1908,6.8e-05,6.8e-05,0.0,0.22,8
1909,8.1e-05,8.1e-05,0.0,0.38,8
1910,0.000114,0.000113,-1e-06,-0.56,8
1911,0.000115,0.000109,-6e-06,-5.08,8
1912,7.1e-05,7e-05,-1e-06,-1.3,8
1913,0.000114,0.00011,-4e-06,-3.36,8
1914,0.000135,0.000134,-0.0,-0.35,8
1915,0.000134,0.000122,-1.2e-05,-9.26,8
1916,8.6e-05,8.3e-05,-3e-06,-2.92,8
1917,0.000101,9.4e-05,-7e-06,-6.59,8
1918,8.6e-05,9.6e-05,1e-05,11.6,8
1919,9.7e-05,9.5e-05,-2e-06,-2.18,8
1920,8.4e-05,8.1e-05,-3e-06,-3.4,8
1921,8.3e-05,8.5e-05,2e-06,2.95,8
1922,7.4e-05,7.3e-05,-1e-06,-1.16,8
1923,0.000134,0.000126,-9e-06,-6.5,8
1924,9.2e-05,9.3e-05,1e-06,1.28,8
1925,0.00011,0.00011,1e-06,0.83,8
1926,7.5e-05,7.3e-05,-2e-06,-3.0,8
1927,0.000119,9.9e-05,-2e-05,-16.5,8
1928,7e-05,6.6e-05,-4e-06,-5.44,8
1929,0.0001,9.8e-05,-2e-06,-1.52,8
1930,8.8e-05,8.9e-05,1e-06,0.72,8
1931,0.000115,0.000104,-1.1e-05,-9.38,8
1932,7.6e-05,7.6e-05,-0.0,-0.22,8
1933,8.1e-05,8.1e-05,1e-06,0.73,8
1934,7.5e-05,7.4e-05,-1e-06,-1.33,8
1935,0.000102,9.6e-05,-6e-06,-6.03,8
1936,7.6e-05,7e-05,-6e-06,-7.35,8
1937,0.000111,0.000106,-5e-06,-4.09,8
1938,8.8e-05,8.3e-05,-4e-06,-5.12,8
1939,0.000134,0.000128,-7e-06,-4.94,8
1940,6.4e-05,5.9e-05,-5e-06,-7.86,8
1941,9.4e-05,9.4e-05,-0.0,-0.31,8
1942,0.000102,0.000101,-1e-06,-0.82,8
1943,0.000112,0.000101,-1.1e-05,-9.8,8
1944,9.4e-05,9.4e-05,-0.0,-0.04,8
1945,9.4e-05,8.9e-05,-5e-06,-5.31,8
1946,8.9e-05,8.7e-05,-2e-06,-1.86,8
1947,0.000114,0.000114,0.0,0.11,8
1948,8.8e-05,0.000104,1.6e-05,17.96,8
1949,7.1e-05,7.1e-05,0.0,0.25,8
1950,0.000114,0.000113,-1e-06,-0.89,8
1951,9.7e-05,9.6e-05,-1e-06,-0.71,8
1952,7e-05,6.6e-05,-4e-06,-5.6,8
1953,0.000148,0.000148,-1e-06,-0.63,8
1954,8.1e-05,8e-05,-2e-06,-2.03,8
1955,0.000249,0.000248,-1e-06,-0.39,8
1956,7.6e-05,7.4e-05,-2e-06,-2.46,8
1957,0.000101,9e-05,-1.1e-05,-10.67,8
1958,0.000102,0.000101,-1e-06,-0.7,8
1959,0.000102,9.5e-05,-7e-06,-6.7,8
1960,6.3e-05,6.2e-05,-1e-06,-2.17,8
1961,8.3e-05,8.4e-05,2e-06,2.0,8
1962,8.9e-05,8.7e-05,-2e-06,-2.23,8
1963,0.00013,0.000123,-7e-06,-5.54,8
1964,7.5e-05,7.5e-05,-0.0,-0.38,8
1965,0.000101,9.6e-05,-5e-06,-4.82,8
1966,8.7e-05,8.3e-05,-4e-06,-4.81,8
1967,0.000122,0.000119,-3e-06,-2.45,8
1968,8.6e-05,8.6e-05,0.0,0.41,8
1969,0.000148,0.000148,-1e-06,-0.37,8
1970,6.7e-05,6.7e-05,-0.0,-0.57,8
1971,0.000249,0.00025,0.0,0.08,8
1972,8.8e-05,8e-05,-9e-06,-9.83,8
1973,0.00011,0.000111,1e-06,1.11,8
1974,0.000102,0.000101,-1e-06,-0.69,8
1975,0.000119,0.000106,-1.3e-05,-10.88,8
1976,7.7e-05,7.7e-05,0.0,0.22,8
1977,9.4e-05,8.9e-05,-5e-06,-5.24,8
1978,8.1e-05,8e-05,-2e-06,-2.24,8
1979,0.00011,0.000108,-2e-06,-1.97,8
1980,9.2e-05,9.2e-05,0.0,0.36,8
1981,0.00011,0.000101,-9e-06,-7.75,8
1982,0.000137,0.000142,5e-06,3.67,8
1983,0.000108,0.000112,4e-06,3.96,8
1984,7.7e-05,7.6e-05,-1e-06,-0.71,8
1985,9.4e-05,9.2e-05,-2e-06,-1.95,8
1986,6.7e-05,6.6e-05,-1e-06,-1.31,8
1987,0.00013,0.000124,-6e-06,-4.45,8
1988,6.8e-05,6.5e-05,-3e-06,-4.58,8
1989,7.8e-05,7.5e-05,-3e-06,-3.79,8
1990,0.000104,9.6e-05,-8e-06,-7.63,8
1991,0.000135,0.000131,-4e-06,-2.76,8
1992,6.3e-05,6e-05,-3e-06,-4.2,8
1993,0.000111,0.000107,-3e-06,-2.95,8
1994,9.4e-05,9e-05,-5e-06,-4.84,8
1995,0.000106,0.000103,-2e-06,-2.05,8
1996,8.4e-05,8.9e-05,5e-06,6.18,8
1997,7.1e-05,7.1e-05,-0.0,-0.2,8
1998,0.000103,0.000109,6e-06,5.46,8
1999,0.000122,0.00012,-2e-06,-1.85,8
2000,8e-05,7.8e-05,-2e-06,-2.07,8
2001,9.1e-05,9.2e-05,1e-06,1.18,8
2002,8.9e-05,8.7e-05,-2e-06,-2.28,8
2003,0.000101,9.7e-05,-4e-06,-3.72,8
2004,7.6e-05,7.4e-05,-2e-06,-2.71,8
2005,0.000105,0.000105,0.0,0.29,8
2006,8.7e-05,8.5e-05,-2e-06,-2.03,8
2007,0.000102,9.7e-05,-5e-06,-4.8,8
2008,9.1e-05,8.7e-05,-5e-06,-5.01,8
2009,9.1e-05,9.1e-05,-0.0,-0.45,8
2010,8.8e-05,8.9e-05,0.0,0.4,8
2011,0.0001,0.0001,1e-06,0.81,8
2012,8.6e-05,8.3e-05,-3e-06,-3.0,8
2013,7.8e-05,7.6e-05,-2e-06,-2.78,8
2014,0.000102,0.000102,-0.0,-0.17,8
2015,9.7e-05,9.6e-05,-1e-06,-0.95,8
2016,6.3e-05,6e-05,-3e-06,-4.68,8
2017,9.4e-05,9.2e-05,-2e-06,-1.77,8
2018,8e-05,8.1e-05,1e-06,0.74,8
2019,0.00014,0.000134,-6e-06,-4.21,8
2020,8.8e-05,9.9e-05,1.1e-05,12.22,8
2021,0.000101,9.7e-05,-4e-06,-3.8,8
2022,9.6e-05,9.1e-05,-5e-06,-5.08,8
2023,0.000125,0.000123,-2e-06,-1.71,8
2024,8.6e-05,8.6e-05,0.0,0.2,8
2025,9.4e-05,9.2e-05,-2e-06,-1.87,8
2026,8.8e-05,8.9e-05,0.0,0.11,8
2027,0.000116,0.000113,-3e-06,-2.67,8
2028,9.2e-05,9.2e-05,-0.0,-0.16,8
2029,0.000101,9.8e-05,-3e-06,-3.16,8
2030,8.7e-05,8.3e-05,-4e-06,-4.78,8
2031,9.7e-05,9.6e-05,-1e-06,-1.02,8
2032,7.8e-05,7.8e-05,0.0,0.15,8
2033,8.3e-05,8.4e-05,1e-06,1.41,8
2034,0.000104,0.000104,-0.0,-0.09,8
2035,0.0001,0.0001,1e-06,0.81,8
2036,8.4e-05,8.7e-05,3e-06,4.07,8
2037,9.4e-05,9.4e-05,0.0,0.01,8
2038,9.6e-05,9.3e-05,-3e-06,-3.57,8
2039,0.000108,0.000111,3e-06,2.96,8
2040,8e-05,7.8e-05,-2e-06,-2.13,8
2041,0.000111,0.000108,-2e-06,-2.17,8
2042,7.4e-05,7.3e-05,-1e-06,-1.6,8
2043,0.000106,0.000104,-2e-06,-1.87,8
2044,8.8e-05,9.7e-05,8e-06,9.28,8
2045,7.8e-05,7.6e-05,-1e-06,-1.92,8
2046,0.000103,0.000107,3e-06,3.36,8
2047,0.000119,0.000113,-6e-06,-5.34,8
2048,7.7e-05,7.6e-05,-1e-06,-1.05,8
2049,9.4e-05,9.2e-05,-2e-06,-1.86,8
2050,8.1e-05,7.9e-05,-2e-06,-2.65,8
2051,0.000114,0.000114,-0.0,-0.38,8
2052,7.5e-05,7.5e-05,-0.0,-0.45,8
2053,0.000105,0.000104,-0.0,-0.37,8
2054,7.5e-05,7.5e-05,-1e-06,-0.82,8
2055,0.000135,0.000131,-3e-06,-2.48,8
2056,9.4e-05,9.4e-05,0.0,0.12,8
2057,0.000114,0.000113,-1e-06,-1.25,8
2058,0.000104,0.000104,0.0,0.4,8
2059,0.000106,0.000104,-2e-06,-1.75,8
2060,8.8e-05,9.5e-05,7e-06,7.36,8
2061,0.000128,0.000126,-3e-06,-2.03,8
2062,8.7e-05,8.3e-05,-4e-06,-4.81,8
2063,0.000112,0.000107,-5e-06,-4.81,8
2064,8.1e-05,7.8e-05,-2e-06,-2.65,8
2065,8.8e-05,9e-05,2e-06,2.56,8
2066,7.4e-05,7.3e-05,-1e-06,-1.33,8
2067,0.00011,0.000109,-1e-06,-1.22,8
2068,7.6e-05,7.4e-05,-2e-06,-2.48,8
2069,0.000128,0.000126,-2e-06,-1.57,8
2070,8.7e-05,8.5e-05,-2e-06,-2.27,8
2071,0.000112,0.000108,-4e-06,-3.42,8
2072,7.1e-05,7e-05,-1e-06,-1.22,8
2073,0.000111,0.000108,-2e-06,-1.94,8
2074,8.9e-05,8.6e-05,-2e-06,-2.53,8
2075,0.000106,0.000104,-2e-06,-1.59,8
2076,7.6e-05,7.5e-05,-2e-06,-2.06,8
2077,8.1e-05,8.1e-05,0.0,0.15,8
2078,0.000137,0.000141,4e-06,2.84,8
2079,0.000102,0.0001,-3e-06,-2.61,8
2080,7.1e-05,7e-05,-1e-06,-1.6,8
2081,9.4e-05,9.2e-05,-2e-06,-1.6,8
2082,8.9e-05,8.7e-05,-2e-06,-2.38,8
2083,0.000101,9.9e-05,-3e-06,-2.51,8
2084,8.4e-05,8.6e-05,3e-06,3.03,8
2085,0.000105,0.000105,0.0,0.34,8
2086,7.5e-05,7.5e-05,-1e-06,-0.99,8
2087,0.000115,0.000121,6e-06,5.05,8
2088,8.4e-05,8.1e-05,-2e-06,-2.93,8
2089,0.000114,0.000113,-1e-06,-1.12,8
2090,0.000104,0.000104,1e-06,0.51,8
2091,0.000106,0.000104,-2e-06,-1.58,8
2092,7.5e-05,7.4e-05,-1e-06,-0.73,8
2093,0.00011,0.000104,-6e-06,-5.39,8
2094,0.000103,0.000106,3e-06,2.81,8
2095,0.000115,0.000111,-4e-06,-3.34,8
2096,9.4e-05,9.4e-05,1e-06,0.72,8
2097,9.4e-05,9e-05,-3e-06,-3.58,8
2098,8.8e-05,8.8e-05,-0.0,-0.46,8
2099,0.00011,0.000109,-1e-06,-0.75,8
2100,6.8e-05,6.9e-05,1e-06,1.27,8
2101,0.000105,0.000105,0.0,0.4,8
2102,9.6e-05,9.4e-05,-2e-06,-2.26,8
2103,0.000115,0.00012,4e-06,3.78,8
2104,9.1e-05,8.7e-05,-4e-06,-4.72,8
2105,9.4e-05,9.2e-05,-2e-06,-1.66,8
2106,8e-05,8.1e-05,0.0,0.55,8
2107,0.00011,0.000109,-1e-06,-0.66,8
2108,7.6e-05,7.5e-05,-1e-06,-1.69,8
2109,0.00011,0.000111,2e-06,1.51,8
2110,0.000114,0.000113,-0.0,-0.28,8
2111,0.000102,0.000101,-2e-06,-1.67,8
2112,9.1e-05,8.8e-05,-4e-06,-4.06,8
2113,8.8e-05,8.9e-05,2e-06,1.81,8
2114,9.9e-05,0.000101,2e-06,1.78,8
2115,0.00013,0.000124,-6e-06,-4.46,8
2116,8.4e-05,8.5e-05,2e-06,2.16,8
2117,8.1e-05,8.1e-05,0.0,0.1,8
2118,7.5e-05,7.5e-05,-1e-06,-1.03,8
2119,0.000115,0.000118,3e-06,2.74,8
2120,8.4e-05,8.1e-05,-2e-06,-2.94,8
2121,0.000114,0.000113,-1e-06,-1.05,8
2122,8.8e-05,8.8e-05,-0.0,-0.38,8
2123,0.000134,0.000131,-4e-06,-2.75,8
2124,9.2e-05,9.1e-05,-0.0,-0.48,8
2125,0.000136,0.000134,-2e-06,-1.79,8
2126,9.6e-05,9.4e-05,-2e-06,-1.64,8
2127,0.000108,0.00011,3e-06,2.47,8
2128,8e-05,7.8e-05,-2e-06,-2.19,8
2129,8.3e-05,8.3e-05,1e-06,0.78,8
2130,9.9e-05,0.0001,1e-06,1.47,8
2131,0.000116,0.000114,-2e-06,-1.54,8
2132,8.8e-05,9.3e-05,5e-06,5.66,8
2133,8.1e-05,8.1e-05,0.0,0.13,8
2134,8.5e-05,7.9e-05,-6e-06,-7.48,8
2135,0.000135,0.000132,-2e-06,-1.71,8
2136,7.7e-05,7.6e-05,-1e-06,-1.11,8
2137,8.8e-05,8.9e-05,1e-06,1.59,8
2138,9.9e-05,0.0001,2e-06,1.54,8
2139,0.000249,0.000251,1e-06,0.47,8
2140,8.4e-05,8.5e-05,1e-06,1.69,8
2141,8.1e-05,8.1e-05,-0.0,-0.12,8
2142,7.5e-05,7.5e-05,-1e-06,-1.06,8
2143,0.000135,0.000133,-2e-06,-1.16,8
2144,8.4e-05,8.1e-05,-2e-06,-2.92,8
2145,9.4e-05,9.1e-05,-2e-06,-2.56,8
2146,0.000104,0.000105,1e-06,0.8,8
2147,0.00014,0.000138,-2e-06,-1.55,8
2148,7.6e-05,7.4e-05,-2e-06,-2.19,8
2149,0.000101,9.8e-05,-3e-06,-2.91,8
2150,0.000137,0.000141,4e-06,2.57,8
2151,0.000143,0.000143,0.0,0.05,8
2152,8e-05,7.8e-05,-2e-06,-2.17,8
2153,8.3e-05,8.3e-05,1e-06,0.67,8
2154,8.9e-05,8.7e-05,-2e-06,-2.2,8
2155,0.00011,0.000109,-1e-06,-0.78,8
2156,6.4e-05,6e-05,-5e-06,-7.35,8
2157,0.000101,9.9e-05,-3e-06,-2.54,8
2158,0.000137,0.00014,3e-06,2.31,8
2159,0.000108,0.00011,2e-06,1.87,8
2160,6.3e-05,6e-05,-3e-06,-4.87,8
2161,9.4e-05,9.2e-05,-1e-06,-1.56,8
2162,7.4e-05,7.3e-05,-0.0,-0.61,8
2163,0.000116,0.000115,-1e-06,-0.84,8
2164,6.4e-05,6e-05,-5e-06,-7.26,8
2165,0.00011,0.000111,1e-06,1.28,8
2166,8.7e-05,8.3e-05,-4e-06,-4.32,8
2167,0.000119,0.000116,-3e-06,-2.31,8
2168,8.4e-05,8.1e-05,-2e-06,-2.82,8
2169,7.5e-05,7.2e-05,-3e-06,-4.47,8
2170,9.4e-05,9.1e-05,-4e-06,-3.97,8
2171,0.000114,0.000115,1e-06,0.64,8
2172,8.4e-05,8.5e-05,1e-06,1.29,8
2173,8.1e-05,8.1e-05,-0.0,-0.15,8
2174,8.5e-05,8.1e-05,-5e-06,-5.47,8
2175,0.000115,0.000117,2e-06,1.73,8
2176,7.7e-05,7.6e-05,-1e-06,-1.28,8
2177,8.8e-05,8.9e-05,1e-06,1.35,8
2178,7.4e-05,7.4e-05,-0.0,-0.27,8
2179,0.000114,0.000114,0.0,0.38,8
2180,6.8e-05,6.8e-05,0.0,0.65,8
2181,7.1e-05,7e-05,-0.0,-0.67,8
2182,8.5e-05,8.1e-05,-4e-06,-4.69,8
2183,0.000119,0.000118,-1e-06,-1.08,8
2184,9.1e-05,8.8e-05,-3e-06,-3.69,8
2185,9.4e-05,9.2e-05,-2e-06,-1.87,8
2186,8.9e-05,8.7e-05,-2e-06,-2.04,8
2187,0.000114,0.000114,0.0,0.27,8
2188,6.8e-05,6.8e-05,0.0,0.54,8
2189,0.00011,0.000105,-4e-06,-4.01,8
2190,8.7e-05,8.4e-05,-3e-06,-3.25,8
2191,0.000115,0.000117,2e-06,1.57,8
2192,7.6e-05,7.2e-05,-4e-06,-5.16,8
2193,9.4e-05,9.3e-05,-1e-06,-1.51,8
2194,0.000135,0.000134,-1e-06,-0.66,8
2195,0.000139,0.000142,2e-06,1.65,8
2196,6.8e-05,6.5e-05,-2e-06,-3.51,8
2197,0.00011,0.000111,1e-06,1.22,8
2198,7.5e-05,7.5e-05,-1e-06,-0.81,8
2199,9.7e-05,9.7e-05,-0.0,-0.06,8
2200,7.8e-05,7.6e-05,-2e-06,-2.52,8
2201,8.8e-05,8.8e-05,1e-06,0.87,8
2202,9.9e-05,0.0001,1e-06,1.28,8
2203,0.00011,0.000109,-1e-06,-0.62,8
2204,8.8e-05,9.3e-05,5e-06,5.19,8
2205,0.000128,0.000127,-1e-06,-0.8,8
2206,8.7e-05,8.3e-05,-4e-06,-4.16,8
2207,0.000108,0.000109,1e-06,1.19,8
2208,7.7e-05,7.6e-05,-1e-06,-1.43,8
2209,8.3e-05,8.3e-05,1e-06,0.64,8
2210,8e-05,8e-05,0.0,0.45,8
2211,0.00011,0.000109,-1e-06,-0.58,8
2212,6.8e-05,6.6e-05,-2e-06,-2.95,8
2213,0.000101,9.2e-05,-9e-06,-8.57,8
2214,0.00011,0.000114,4e-06,3.6,8
2215,0.000102,0.000102,-1e-06,-0.52,8
2216,9.1e-05,8.8e-05,-3e-06,-3.38,8
2217,0.000111,0.000109,-2e-06,-1.59,8
2218,8.9e-05,8.7e-05,-2e-06,-1.9,8
2219,0.000134,0.000132,-3e-06,-2.0,8
2220,8.8e-05,8.4e-05,-4e-06,-4.72,8
2221,9.2e-05,9.3e-05,1e-06,1.19,8
2222,0.000103,0.000106,3e-06,2.66,8
2223,0.000115,0.000113,-2e-06,-2.08,8
2224,8e-05,7.8e-05,-2e-06,-2.04,8
2225,0.0001,9.8e-05,-2e-06,-1.57,8
2226,0.000103,0.0001,-4e-06,-3.4,8
2227,0.000106,0.000104,-1e-06,-1.23,8
2228,8.6e-05,8.2e-05,-4e-06,-4.18,8
2229,0.000136,0.000135,-2e-06,-1.17,8
2230,7.5e-05,7.5e-05,-0.0,-0.66,8
2231,0.000115,0.000117,2e-06,1.55,8
2232,7.7e-05,7.6e-05,-1e-06,-1.48,8
2233,7.5e-05,7.2e-05,-3e-06,-4.04,8
2234,0.000103,0.000101,-3e-06,-2.57,8
2235,0.00014,0.000138,-2e-06,-1.19,8
2236,6.8e-05,6.8e-05,0.0,0.15,8
2237,0.000128,0.000127,-1e-06,-0.83,8
2238,0.000104,0.000103,-1e-06,-0.95,8
2239,0.000112,0.000111,-1e-06,-1.24,8
2240,8.1e-05,7.8e-05,-3e-06,-3.12,8
2241,9.1e-05,9e-05,-1e-06,-1.51,8
2242,8.8e-05,8.8e-05,-1e-06,-0.63,8
2243,0.00011,0.00011,-0.0,-0.38,8
2244,6.8e-05,6.8e-05,0.0,0.19,8
2245,8.1e-05,8.1e-05,-0.0,-0.15,8
2246,7.5e-05,7.5e-05,-0.0,-0.47,8
2247,0.000135,0.000133,-1e-06,-1.06,8
2248,8.4e-05,8.1e-05,-2e-06,-2.8,8
2249,9.1e-05,9.3e-05,2e-06,1.92,8
2250,8.8e-05,8.5e-05,-2e-06,-2.4,8
2251,0.000249,0.000251,2e-06,0.71,8
2252,8.6e-05,8.3e-05,-3e-06,-3.53,8
2253,0.000101,9.9e-05,-2e-06,-2.47,8
2254,0.000104,0.000104,-0.0,-0.05,8
2255,0.000108,0.000109,1e-06,0.78,8
2256,7.1e-05,7e-05,-1e-06,-1.42,8
2257,9.1e-05,9e-05,-1e-06,-1.62,8
2258,9.9e-05,0.0001,1e-06,1.14,8
2259,0.0001,0.000102,2e-06,2.42,8
2260,7.5e-05,7.4e-05,-1e-06,-0.98,8
2261,9.4e-05,9.5e-05,1e-06,0.75,8
2262,0.000102,0.000102,-0.0,-0.23,8
2263,0.000122,0.000121,-2e-06,-1.24,8
2264,8.1e-05,7.8e-05,-2e-06,-2.76,8
2265,9.4e-05,9.2e-05,-1e-06,-1.48,8
2266,0.000103,0.000101,-2e-06,-1.87,8
2267,0.00013,0.000125,-5e-06,-3.89,8
2268,8.4e-05,8.4e-05,1e-06,0.83,8
2269,9.4e-05,9.4e-05,0.0,0.47,8
2270,0.00011,0.000114,4e-06,3.66,8
2271,0.000122,0.000121,-1e-06,-0.99,8
2272,8.6e-05,8.6e-05,-0.0,-0.48,8
2273,0.000148,0.000147,-1e-06,-0.76,8
2274,6.7e-05,6.6e-05,-1e-06,-1.59,8
2275,0.000134,0.000133,-2e-06,-1.42,8
2276,7.6e-05,7.4e-05,-2e-06,-2.47,8
2277,0.000128,0.000127,-1e-06,-0.92,8
2278,0.000137,0.00014,3e-06,2.09,8
2279,0.000143,0.000143,-0.0,-0.24,8
2280,8.1e-05,7.9e-05,-2e-06,-2.48,8
2281,7.5e-05,7.2e-05,-3e-06,-3.66,8
2282,0.000135,0.000134,-1e-06,-0.48,8
2283,0.000106,0.000104,-1e-06,-1.27,8
2284,8.4e-05,8.4e-05,0.0,0.57,8
2285,0.000128,0.000127,-1e-06,-0.95,8
2286,8.6e-05,8.9e-05,3e-06,3.57,8
2287,0.000123,0.000121,-2e-06,-1.99,8
2288,9.1e-05,8.8e-05,-3e-06,-3.22,8
2289,9.1e-05,9e-05,-1e-06,-1.42,8
2290,0.000104,0.000105,1e-06,0.78,8
2291,0.00014,0.000139,-1e-06,-0.61,8
2292,7.6e-05,7.5e-05,-1e-06,-1.26,8
2293,7.8e-05,7.6e-05,-1e-06,-1.88,8
2294,8.7e-05,8.4e-05,-3e-06,-3.85,8
2295,0.000123,0.000122,-2e-06,-1.41,8
2296,8.1e-05,7.9e-05,-2e-06,-2.35,8
2297,0.000111,0.000109,-1e-06,-1.32,8
2298,0.000135,0.000134,-0.0,-0.32,8
2299,0.00013,0.000125,-4e-06,-3.34,8
2300,8.6e-05,8.3e-05,-3e-06,-3.18,8
2301,0.000101,9.9e-05,-2e-06,-2.27,8
2302,0.000104,0.000104,0.0,0.48,8
2303,0.000123,0.000122,-1e-06,-0.93,8
2304,8e-05,7.8e-05,-2e-06,-2.08,8
2305,0.0001,9.8e-05,-2e-06,-1.71,8
2306,8e-05,8.1e-05,0.0,0.57,8
2307,0.000116,0.000115,-0.0,-0.35,8
2308,8.8e-05,9.2e-05,4e-06,4.14,8
2309,0.000101,9.5e-05,-6e-06,-5.62,8
2310,0.000137,0.00014,3e-06,1.96,8
2311,0.000112,0.000111,-1e-06,-0.59,8
2312,8.4e-05,8.1e-05,-2e-06,-2.76,8
2313,9.4e-05,9.3e-05,-1e-06,-1.05,8
2314,6.7e-05,6.6e-05,-1e-06,-2.11,8
2315,0.000106,0.000104,-1e-06,-1.27,8
2316,7.5e-05,7.4e-05,-1e-06,-1.07,8
2317,8.1e-05,8e-05,-0.0,-0.27,8
2318,0.000104,0.000104,1e-06,0.86,8
2319,0.000119,0.000118,-1e-06,-0.83,8
2320,7e-05,6.6e-05,-3e-06,-4.77,8
2321,0.000111,0.000109,-1e-06,-1.14,8
2322,0.000104,0.000105,1e-06,0.8,8
2323,0.000116,0.000116,0.0,0.06,8
2324,7.6e-05,7.5e-05,-1e-06,-1.04,8
2325,7.1e-05,7e-05,-1e-06,-1.0,8
2326,0.000102,0.000102,-0.0,-0.15,8
2327,9.7e-05,9.7e-05,0.0,0.34,8
2328,8.4e-05,8.1e-05,-2e-06,-2.77,8
2329,0.000114,0.000113,-1e-06,-0.69,8
2330,8.8e-05,8.7e-05,-1e-06,-1.02,8
2331,0.000249,0.000252,2e-06,0.86,8
2332,6.4e-05,6e-05,-5e-06,-7.04,8
2333,9.2e-05,9.3e-05,1e-06,1.17,8
2334,0.000102,0.000102,-0.0,-0.12,8
2335,0.000125,0.000123,-2e-06,-1.28,8
2336,7.7e-05,7.6e-05,-1e-06,-1.39,8
2337,9.4e-05,9.3e-05,-1e-06,-1.27,8
2338,0.000103,0.000102,-2e-06,-1.66,8
2339,0.0001,0.000102,3e-06,2.68,8
2340,6.8e-05,6.6e-05,-2e-06,-2.27,8
2341,0.00011,0.000108,-2e-06,-2.05,8
2342,8.7e-05,8.4e-05,-3e-06,-2.97,8
2343,0.000119,0.000119,-0.0,-0.25,8
2344,7.1e-05,7e-05,-1e-06,-1.4,8
2345,9.4e-05,9.3e-05,-1e-06,-0.67,8
2346,9.4e-05,9.1e-05,-3e-06,-3.11,8
2347,0.000139,0.000142,2e-06,1.48,8
2348,6.8e-05,6.8e-05,0.0,0.05,8
2349,0.00011,0.000108,-1e-06,-1.22,8
2350,0.000137,0.00014,2e-06,1.77,8
2351,0.000125,0.000124,-1e-06,-0.86,8
2352,8.6e-05,8.5e-05,-1e-06,-0.76,8
2353,0.0001,9.8e-05,-2e-06,-1.66,8
2354,9.4e-05,9.2e-05,-3e-06,-3.02,8
2355,0.000101,0.0001,-1e-06,-1.26,8
2356,8.8e-05,8.6e-05,-3e-06,-3.2,8
2357,0.000128,0.000127,-1e-06,-0.98,8
2358,8.5e-05,8.2e-05,-3e-06,-3.8,8
2359,0.000119,0.000119,0.0,0.28,8
2360,7.1e-05,7e-05,-1e-06,-1.52,8
2361,0.0001,9.8e-05,-2e-06,-1.69,8
2362,8.1e-05,7.9e-05,-2e-06,-2.66,8
2363,0.000116,0.000116,0.0,0.28,8
2364,8.8e-05,9.2e-05,3e-06,3.73,8
2365,8.1e-05,8.1e-05,-0.0,-0.18,8
2366,8.5e-05,8.2e-05,-3e-06,-3.49,8
2367,0.000108,0.000108,0.0,0.32,8
2368,8.1e-05,7.9e-05,-2e-06,-2.23,8
2369,8.8e-05,8.8e-05,0.0,0.5,8
2370,8.1e-05,7.9e-05,-2e-06,-2.67,8
2371,0.00013,0.000125,-4e-06,-3.25,8
2372,7.6e-05,7.4e-05,-2e-06,-2.74,8
2373,8.1e-05,8.1e-05,-0.0,-0.18,8
2374,8.5e-05,8.3e-05,-3e-06,-3.23,8
2375,0.000125,0.000124,-1e-06,-0.53,8
2376,7.6e-05,7.2e-05,-4e-06,-4.98,8
2377,9.1e-05,9.3e-05,1e-06,1.45,8
2378,9.9e-05,0.0001,1e-06,1.47,8
2379,0.000101,0.0001,-1e-06,-1.07,8
2380,9.2e-05,9.1e-05,-0.0,-0.41,8
2381,7.1e-05,7e-05,-1e-06,-1.1,8
2382,0.000137,0.000139,2e-06,1.65,8
2383,0.000119,0.00012,1e-06,0.81,8
2384,7.1e-05,7e-05,-1e-06,-1.59,8
2385,8.3e-05,8.3e-05,0.0,0.42,8
2386,0.000103,0.000102,-1e-06,-1.39,8
2387,0.000114,0.000115,1e-06,0.84,8
2388,8.6e-05,8.4e-05,-2e-06,-2.7,8
2389,7.1e-05,7e-05,-1e-06,-1.2,8
2390,0.00011,0.000114,4e-06,4.01,8
2391,0.000108,0.000108,0.0,0.14,8
2392,7.8e-05,7.6e-05,-2e-06,-2.71,8
2393,9.4e-05,9.3e-05,-0.0,-0.48,8
2394,7.4e-05,7.4e-05,0.0,0.26,8
2395,0.000106,0.000105,-1e-06,-1.03,8
2396,6.8e-05,6.6e-05,-1e-06,-2.14,8
2397,8.1e-05,8e-05,-0.0,-0.31,8
2398,0.000137,0.000139,2e-06,1.57,8
2399,0.000112,0.000112,0.0,0.03,8
2400,8.6e-05,9.7e-05,1.1e-05,12.82,16
2401,9.8e-05,9.8e-05,0.0,0.12,16
2402,8.2e-05,7.8e-05,-4e-06,-5.07,16
2403,9e-05,0.000113,2.3e-05,26.02,16
2404,9.3e-05,9.3e-05,0.0,0.3,16
2405,7e-05,7.3e-05,3e-06,4.18,16
2406,8.7e-05,9.3e-05,6e-06,7.05,16
2407,7.4e-05,9.1e-05,1.7e-05,22.86,16
2408,8.9e-05,9.6e-05,7e-06,8.16,16
2409,0.000102,0.000104,2e-06,1.66,16
2410,9.8e-05,9.9e-05,1e-06,1.49,16
2411,9.4e-05,9.7e-05,3e-06,3.46,16
2412,6.6e-05,6.8e-05,2e-06,3.66,16
2413,9.8e-05,0.000102,3e-06,3.29,16
2414,9.4e-05,9.6e-05,3e-06,2.82,16
2415,0.000101,9.4e-05,-7e-06,-6.75,16
2416,9.7e-05,8.5e-05,-1.2e-05,-12.46,16
2417,0.00012,0.00012,0.0,0.3,16
2418,7.8e-05,7.6e-05,-1e-06,-1.79,16
2419,8.8e-05,8.3e-05,-5e-06,-5.86,16
2420,6e-05,6.2e-05,2e-06,3.47,16
2421,8.7e-05,7.7e-05,-1e-05,-11.38,16
2422,8.4e-05,8.3e-05,-2e-06,-1.82,16
2423,9.4e-05,9.4e-05,0.0,0.46,16
2424,9.3e-05,9.6e-05,3e-06,3.44,16
2425,9.8e-05,9.5e-05,-2e-06,-2.33,16
2426,9.8e-05,9.8e-05,0.0,0.23,16
2427,0.000115,0.000114,-1e-06,-1.23,16
2428,0.000107,0.000107,1e-06,0.74,16
2429,9.2e-05,9.5e-05,3e-06,3.36,16
2430,7.1e-05,7.2e-05,1e-06,1.99,16
2431,9.5e-05,8.6e-05,-9e-06,-9.21,16
2432,8.6e-05,8.4e-05,-2e-06,-1.95,16
2433,9e-05,9.1e-05,1e-06,1.47,16
2434,8.2e-05,7.8e-05,-4e-06,-4.46,16
2435,9.1e-05,9.4e-05,3e-06,2.9,16
2436,8.8e-05,8.5e-05,-2e-06,-2.69,16
2437,0.000103,9.8e-05,-6e-06,-5.63,16
2438,7.5e-05,6.8e-05,-7e-06,-9.41,16
2439,9.5e-05,8.7e-05,-8e-06,-8.0,16
2440,8.2e-05,7.8e-05,-4e-06,-4.84,16
2441,9e-05,9e-05,0.0,0.14,16
2442,6.7e-05,6.4e-05,-3e-06,-4.66,16
2443,0.000115,0.000113,-2e-06,-2.13,16
2444,7.4e-05,7.2e-05,-2e-06,-2.79,16
2445,7e-05,6.7e-05,-3e-06,-4.13,16
2446,8.4e-05,8.4e-05,-1e-06,-0.81,16
2447,9.2e-05,8.7e-05,-6e-06,-6.01,16
2448,9.3e-05,9.2e-05,-1e-06,-1.37,16
2449,6.3e-05,6.2e-05,-2e-06,-2.39,16
2450,7.4e-05,7.3e-05,-1e-06,-0.77,16
2451,8.9e-05,9.2e-05,2e-06,2.64,16
2452,8e-05,7.8e-05,-2e-06,-2.22,16
2453,9.2e-05,9.4e-05,2e-06,2.18,16
2454,8.7e-05,8.8e-05,1e-06,1.16,16
2455,0.000115,0.000104,-1.1e-05,-9.41,16
2456,7.6e-05,7.3e-05,-3e-06,-3.63,16
2457,8.2e-05,7.9e-05,-3e-06,-3.44,16
2458,6.7e-05,6.3e-05,-4e-06,-6.12,16
2459,0.000103,0.000106,3e-06,3.17,16
2460,7.7e-05,7.8e-05,1e-06,0.71,16
2461,7.2e-05,6.8e-05,-5e-06,-6.44,16
2462,8.8e-05,8.6e-05,-2e-06,-2.43,16
2463,0.000122,0.000111,-1.2e-05,-9.45,16
2464,9.6e-05,9e-05,-6e-06,-5.89,16
2465,0.000102,9.8e-05,-3e-06,-3.36,16
2466,7.4e-05,7.3e-05,-1e-06,-1.48,16
2467,8.8e-05,8.2e-05,-5e-06,-5.8,16
2468,6e-05,5.7e-05,-3e-06,-5.06,16
2469,9.2e-05,9.3e-05,1e-06,0.75,16
2470,7.5e-05,6.9e-05,-5e-06,-7.3,16
2471,0.000101,9.5e-05,-6e-06,-5.77,16
2472,8.2e-05,7.8e-05,-3e-06,-4.28,16
2473,8.8e-05,8.4e-05,-4e-06,-5.05,16
2474,7.4e-05,7.3e-05,-1e-06,-1.33,16
2475,8.9e-05,9e-05,1e-06,0.72,16
2476,8.9e-05,8.5e-05,-4e-06,-4.18,16
2477,9.2e-05,9.2e-05,0.0,0.03,16
2478,8.4e-05,8.3e-05,-1e-06,-0.85,16
2479,0.000119,0.000114,-5e-06,-4.3,16
2480,7.6e-05,7.4e-05,-2e-06,-3.02,16
2481,9.1e-05,8.6e-05,-5e-06,-5.92,16
2482,7.8e-05,7.5e-05,-2e-06,-2.93,16
2483,9.1e-05,9e-05,-1e-06,-1.4,16
2484,7.4e-05,7.1e-05,-3e-06,-4.32,16
2485,9.4e-05,8.5e-05,-9e-06,-9.55,16
2486,6.2e-05,5.8e-05,-3e-06,-5.07,16
2487,0.000122,0.000115,-7e-06,-5.72,16
2488,7.6e-05,7.4e-05,-2e-06,-2.63,16
2489,9.8e-05,9.4e-05,-3e-06,-3.47,16
2490,7.8e-05,7.5e-05,-2e-06,-2.92,16
2491,9e-05,9.2e-05,2e-06,2.6,16
2492,7.4e-05,7.1e-05,-3e-06,-4.2,16
2493,8.7e-05,8.1e-05,-6e-06,-7.35,16
2494,8.4e-05,8.4e-05,-1e-06,-0.67,16
2495,7.4e-05,7.1e-05,-3e-06,-3.64,16
2496,9.3e-05,9.1e-05,-2e-06,-1.85,16
2497,9e-05,8.8e-05,-1e-06,-1.5,16
2498,8.7e-05,8.4e-05,-3e-06,-3.86,16
2499,0.0001,0.000101,1e-06,1.16,16
2500,7.4e-05,7.1e-05,-3e-06,-4.2,16
2501,0.000103,0.000101,-2e-06,-2.26,16
2502,9.4e-05,8.9e-05,-5e-06,-5.38,16
2503,0.000119,0.000115,-4e-06,-3.41,16
2504,9.7e-05,9.2e-05,-5e-06,-4.82,16
2505,0.00012,0.000118,-2e-06,-1.58,16
2506,8.2e-05,7.8e-05,-4e-06,-4.4,16
2507,9e-05,9.1e-05,1e-06,1.54,16
2508,6e-05,5.7e-05,-3e-06,-5.63,16
2509,0.000103,0.000102,-2e-06,-1.54,16
2510,8.9e-05,8.4e-05,-5e-06,-5.73,16
2511,9.1e-05,9.1e-05,-0.0,-0.08,16
2512,7.6e-05,6.8e-05,-7e-06,-9.75,16
2513,9.3e-05,9.1e-05,-2e-06,-1.96,16
2514,8.2e-05,7.8e-05,-3e-06,-4.27,16
2515,9.1e-05,9e-05,-1e-06,-1.64,16
2516,0.000107,0.000105,-2e-06,-1.73,16
2517,7e-05,6.7e-05,-3e-06,-4.18,16
2518,8.8e-05,8.7e-05,-1e-06,-0.98,16
2519,9.1e-05,8e-05,-1.2e-05,-12.9,16
2520,8.9e-05,8.8e-05,-1e-06,-1.09,16
2521,9.5e-05,0.0001,5e-06,5.36,16
2522,9.7e-05,9.4e-05,-3e-06,-3.38,16
2523,9.4e-05,9.3e-05,-1e-06,-0.68,16
2524,9.3e-05,9.1e-05,-2e-06,-1.72,16
2525,7e-05,6.8e-05,-2e-06,-3.17,16
2526,8.5e-05,8.4e-05,-1e-06,-0.73,16
2527,9.2e-05,8.8e-05,-4e-06,-4.29,16
2528,8.6e-05,8.3e-05,-3e-06,-3.06,16
2529,9.5e-05,9.9e-05,4e-06,3.74,16
2530,7.8e-05,7.6e-05,-2e-06,-2.26,16
2531,8.8e-05,8.4e-05,-4e-06,-4.27,16
2532,6e-05,5.7e-05,-3e-06,-5.28,16
2533,8.7e-05,8.2e-05,-5e-06,-5.33,16
2534,9.4e-05,8.9e-05,-4e-06,-4.48,16
2535,9.1e-05,8.4e-05,-7e-06,-8.1,16
2536,7.8e-05,7.6e-05,-2e-06,-2.57,16
2537,9e-05,8.8e-05,-2e-06,-2.03,16
2538,0.000149,0.000148,-0.0,-0.21,16
2539,7.6e-05,6.7e-05,-9e-06,-11.34,16
2540,7.4e-05,7.2e-05,-1e-06,-1.94,16
2541,0.000103,9.9e-05,-5e-06,-4.36,16
2542,8.9e-05,8.6e-05,-3e-06,-3.62,16
2543,9.1e-05,8.8e-05,-3e-06,-3.26,16
2544,0.0001,9.6e-05,-3e-06,-3.42,16
2545,8.2e-05,7.8e-05,-4e-06,-4.5,16
2546,8.8e-05,8.9e-05,1e-06,1.68,16
2547,8.8e-05,8.3e-05,-5e-06,-5.72,16
2548,8e-05,7.8e-05,-2e-06,-2.82,16
2549,9.2e-05,9e-05,-2e-06,-1.64,16
2550,8.9e-05,8.6e-05,-3e-06,-3.17,16
2551,0.000122,0.000118,-4e-06,-3.64,16
2552,8.2e-05,7.8e-05,-3e-06,-4.03,16
2553,9.1e-05,8.6e-05,-4e-06,-4.9,16
2554,8.2e-05,7.8e-05,-4e-06,-4.4,16
2555,8.8e-05,8.4e-05,-3e-06,-3.48,16
2556,7.7e-05,7.5e-05,-2e-06,-2.95,16
2557,7e-05,6.8e-05,-1e-06,-2.08,16
2558,9.4e-05,9e-05,-4e-06,-3.81,16
2559,9.1e-05,8.6e-05,-5e-06,-5.58,16
2560,9.3e-05,9.1e-05,-2e-06,-2.28,16
2561,0.000102,9.9e-05,-3e-06,-3.11,16
2562,9.8e-05,9.5e-05,-3e-06,-3.44,16
2563,7.6e-05,7e-05,-6e-06,-8.34,16
2564,6.6e-05,6.6e-05,0.0,0.51,16
2565,9.3e-05,8.3e-05,-9e-06,-10.2,16
2566,8.9e-05,8.7e-05,-2e-06,-2.68,16
2567,9.4e-05,9e-05,-3e-06,-3.65,16
2568,9.6e-05,9.3e-05,-3e-06,-3.39,16
2569,9.8e-05,9.5e-05,-3e-06,-3.19,16
2570,7.4e-05,7.4e-05,-0.0,-0.67,16
2571,7.6e-05,7.1e-05,-5e-06,-6.68,16
2572,8.8e-05,8.5e-05,-3e-06,-3.12,16
2573,7e-05,6.9e-05,-1e-06,-1.49,16
2574,0.000119,0.000115,-3e-06,-2.87,16
2575,9.1e-05,8.9e-05,-3e-06,-2.93,16
2576,9.6e-05,9.3e-05,-3e-06,-2.88,16
2577,6.3e-05,6e-05,-3e-06,-4.64,16
2578,8.2e-05,7.8e-05,-4e-06,-4.36,16
2579,8.8e-05,8.5e-05,-2e-06,-2.85,16
2580,8.8e-05,8.6e-05,-1e-06,-1.61,16
2581,9.8e-05,9.7e-05,-2e-06,-1.72,16
2582,8.5e-05,8.4e-05,-1e-06,-1.18,16
2583,0.000108,0.000104,-4e-06,-3.56,16
2584,7.8e-05,7.7e-05,-0.0,-0.14,16
2585,9e-05,8.7e-05,-3e-06,-2.99,16
2586,0.000149,0.000146,-2e-06,-1.48,16
2587,7.6e-05,7.2e-05,-4e-06,-5.44,16
2588,8.9e-05,8.6e-05,-3e-06,-3.82,16
2589,9.3e-05,8.7e-05,-6e-06,-6.39,16
2590,6.2e-05,5.9e-05,-3e-06,-4.11,16
2591,9.2e-05,9e-05,-2e-06,-2.53,16
2592,7.8e-05,7.6e-05,-1e-06,-1.9,16
2593,8.5e-05,8.1e-05,-4e-06,-4.95,16
2594,9.8e-05,9.5e-05,-3e-06,-2.6,16
2595,8.8e-05,8.5e-05,-3e-06,-3.48,16
2596,8.8e-05,8.6e-05,-2e-06,-2.46,16
2597,9.8e-05,9.6e-05,-2e-06,-2.06,16
2598,6.2e-05,5.9e-05,-2e-06,-3.87,16
2599,9.4e-05,9.1e-05,-2e-06,-2.55,16
2600,9.7e-05,9.4e-05,-3e-06,-3.33,16
2601,9.1e-05,8.7e-05,-3e-06,-3.83,16
2602,7.4e-05,7.3e-05,-1e-06,-0.85,16
2603,6.1e-05,5.9e-05,-2e-06,-3.3,16
2604,8.9e-05,8.6e-05,-3e-06,-3.76,16
2605,9.2e-05,9e-05,-2e-06,-1.9,16
2606,8.6e-05,8.4e-05,-2e-06,-2.73,16
2607,7.4e-05,7.3e-05,-1e-06,-1.74,16
2608,9.6e-05,9.3e-05,-2e-06,-2.51,16
2609,9.1e-05,8.8e-05,-3e-06,-3.13,16
2610,7.4e-05,7.3e-05,-1e-06,-0.73,16
2611,9e-05,9e-05,-0.0,-0.2,16
2612,8.8e-05,8.6e-05,-2e-06,-2.36,16
2613,7e-05,6.9e-05,-1e-06,-0.92,16
2614,6.2e-05,5.9e-05,-2e-06,-3.85,16
2615,9.1e-05,8.9e-05,-2e-06,-2.3,16
2616,7.6e-05,7.4e-05,-2e-06,-2.35,16
2617,9.1e-05,8.8e-05,-3e-06,-2.8,16
2618,8.2e-05,7.8e-05,-3e-06,-4.12,16
2619,6.1e-05,5.8e-05,-2e-06,-3.52,16
2620,0.000107,0.000104,-2e-06,-2.26,16
2621,9.2e-05,9.2e-05,-0.0,-0.27,16
2622,8.7e-05,8.5e-05,-3e-06,-3.08,16
2623,7.4e-05,7.3e-05,-1e-06,-1.4,16
2624,7.6e-05,7.4e-05,-2e-06,-2.25,16
2625,9.3e-05,9.2e-05,-1e-06,-1.22,16
2626,9.8e-05,9.6e-05,-2e-06,-2.17,16
2627,6.1e-05,5.8e-05,-2e-06,-3.51,16
2628,7.4e-05,7.2e-05,-2e-06,-3.29,16
2629,0.000103,0.000102,-1e-06,-0.99,16
2630,8.6e-05,8.4e-05,-2e-06,-1.99,16
2631,9.5e-05,9.3e-05,-3e-06,-2.7,16
2632,8.2e-05,7.9e-05,-3e-06,-3.57,16
2633,8.8e-05,8.6e-05,-3e-06,-3.12,16
2634,9.1e-05,8.9e-05,-2e-06,-2.32,16
2635,6.1e-05,5.9e-05,-2e-06,-3.48,16
2636,9.3e-05,9.1e-05,-2e-06,-2.34,16
2637,9.4e-05,8.9e-05,-5e-06,-5.66,16
2638,6.2e-05,5.9e-05,-2e-06,-3.67,16
2639,9.1e-05,8.7e-05,-4e-06,-4.77,16
2640,9.7e-05,9.4e-05,-3e-06,-2.98,16
2641,8.8e-05,8.6e-05,-2e-06,-2.28,16
2642,9.1e-05,9e-05,-1e-06,-1.07,16
2643,7.6e-05,7.3e-05,-3e-06,-4.3,16
2644,8.8e-05,8.5e-05,-2e-06,-2.72,16
2645,9.2e-05,9e-05,-2e-06,-2.22,16
2646,8.5e-05,8.4e-05,-1e-06,-1.04,16
2647,9.1e-05,8.8e-05,-4e-06,-4.01,16
2648,8.9e-05,8.8e-05,-1e-06,-1.33,16
2649,8.3e-05,7.8e-05,-5e-06,-5.71,16
2650,8.2e-05,7.8e-05,-3e-06,-4.04,16
2651,9.4e-05,9.3e-05,-1e-06,-1.12,16
2652,8.8e-05,8.6e-05,-2e-06,-2.29,16
2653,0.000103,0.000103,-1e-06,-0.6,16
2654,8.6e-05,8.5e-05,-1e-06,-1.47,16
2655,0.000115,0.000112,-3e-06,-2.45,16
2656,7.6e-05,7e-05,-6e-06,-8.07,16
2657,8.8e-05,8.7e-05,-2e-06,-1.83,16
2658,9.1e-05,9e-05,-1e-06,-0.98,16
2659,9e-05,9e-05,-0.0,-0.08,16
2660,7.4e-05,7.2e-05,-2e-06,-3.28,16
2661,8.7e-05,8.5e-05,-2e-06,-2.78,16
2662,8.8e-05,8.7e-05,-1e-06,-0.95,16
2663,9.1e-05,8.9e-05,-2e-06,-2.1,16
2664,8.6e-05,8.3e-05,-3e-06,-3.0,16
2665,8.5e-05,8.2e-05,-3e-06,-3.66,16
2666,8.7e-05,8.2e-05,-5e-06,-5.4,16
2667,9e-05,9e-05,-0.0,-0.13,16
2668,8e-05,7.8e-05,-2e-06,-2.97,16
2669,0.000103,0.000101,-2e-06,-1.79,16
2670,8.6e-05,8.5e-05,-1e-06,-1.52,16
2671,0.000108,0.000107,-1e-06,-1.08,16
2672,9.7e-05,9.4e-05,-3e-06,-2.85,16
2673,8.2e-05,7.9e-05,-3e-06,-3.54,16
2674,9e-05,8.7e-05,-4e-06,-3.93,16
2675,8.9e-05,8.7e-05,-2e-06,-2.51,16
2676,7.7e-05,7.4e-05,-3e-06,-3.56,16
2677,9.3e-05,8.9e-05,-3e-06,-3.67,16
2678,8.4e-05,8.3e-05,-1e-06,-0.9,16
2679,9.1e-05,9e-05,-2e-06,-2.03,16
2680,9.6e-05,9.4e-05,-2e-06,-2.28,16
2681,8.3e-05,7.9e-05,-4e-06,-4.63,16
2682,9.1e-05,9e-05,-1e-06,-0.73,16
2683,7.6e-05,7.4e-05,-2e-06,-3.17,16
2684,9.3e-05,9.2e-05,-1e-06,-1.14,16
2685,9.2e-05,9.2e-05,-0.0,-0.33,16
2686,7.1e-05,6.9e-05,-2e-06,-2.69,16
2687,9.1e-05,8.9e-05,-3e-06,-2.95,16
2688,9.6e-05,9.4e-05,-2e-06,-2.22,16
2689,0.00012,0.000117,-3e-06,-2.14,16
2690,6.7e-05,6.3e-05,-4e-06,-6.22,16
2691,7.6e-05,7.4e-05,-2e-06,-3.13,16
2692,8.9e-05,8.6e-05,-3e-06,-3.51,16
2693,0.000103,0.000103,-1e-06,-0.55,16
2694,8.7e-05,8.5e-05,-3e-06,-3.33,16
2695,0.000101,9.8e-05,-3e-06,-3.03,16
2696,9.7e-05,9.4e-05,-3e-06,-2.68,16
2697,8.3e-05,7.9e-05,-3e-06,-4.16,16
2698,9.7e-05,9.4e-05,-3e-06,-3.51,16
2699,6.1e-05,5.9e-05,-2e-06,-3.35,16
2700,8.9e-05,8.6e-05,-3e-06,-3.44,16
2701,9.8e-05,9.6e-05,-2e-06,-2.08,16
2702,8.6e-05,8.5e-05,-1e-06,-1.54,16
2703,9.4e-05,9.1e-05,-2e-06,-2.34,16
2704,9.7e-05,9.4e-05,-2e-06,-2.54,16
2705,6.3e-05,6e-05,-3e-06,-5.16,16
2706,9.8e-05,9.6e-05,-2e-06,-1.77,16
2707,8.9e-05,8.7e-05,-3e-06,-2.81,16
2708,8.9e-05,8.6e-05,-3e-06,-3.49,16
2709,9.3e-05,9e-05,-3e-06,-2.79,16
2710,6.2e-05,5.9e-05,-2e-06,-3.63,16
2711,0.000118,0.000116,-2e-06,-1.57,16
2712,9.7e-05,9.4e-05,-2e-06,-2.5,16
2713,8.5e-05,8.2e-05,-3e-06,-3.57,16
2714,9.6e-05,9.4e-05,-1e-06,-1.35,16
2715,8.8e-05,8.5e-05,-2e-06,-2.52,16
2716,8.9e-05,8.6e-05,-3e-06,-3.49,16
2717,9.2e-05,9.1e-05,-1e-06,-1.42,16
2718,8.6e-05,8.5e-05,-1e-06,-1.42,16
2719,0.000115,0.000113,-2e-06,-1.45,16
2720,7.6e-05,7.5e-05,-1e-06,-1.54,16
2721,0.000102,9.9e-05,-3e-06,-3.08,16
2722,9.1e-05,9e-05,-0.0,-0.49,16
2723,9e-05,9e-05,-0.0,-0.26,16
2724,0.000107,0.000104,-3e-06,-2.36,16
2725,8.7e-05,8.5e-05,-2e-06,-2.29,16
2726,7.5e-05,7.2e-05,-3e-06,-3.93,16
2727,7.4e-05,7.3e-05,-1e-06,-0.74,16
2728,7.8e-05,7.6e-05,-3e-06,-3.52,16
2729,9.8e-05,9.6e-05,-2e-06,-2.32,16
2730,8.2e-05,7.9e-05,-3e-06,-3.83,16
2731,0.000124,0.000121,-4e-06,-3.04,16
2732,9.3e-05,9.2e-05,-1e-06,-0.84,16
2733,9.2e-05,9.1e-05,-1e-06,-1.58,16
2734,8.6e-05,8.5e-05,-1e-06,-1.47,16
2735,9.5e-05,9.3e-05,-2e-06,-1.69,16
2736,8.6e-05,8.3e-05,-3e-06,-3.16,16
2737,9.5e-05,9.4e-05,-1e-06,-0.89,16
2738,7.8e-05,7.7e-05,-1e-06,-1.4,16
2739,0.000115,0.000113,-2e-06,-2.12,16
2740,8.4e-05,8e-05,-4e-06,-4.7,16
2741,9.4e-05,9e-05,-4e-06,-4.24,16
2742,7.1e-05,6.9e-05,-2e-06,-2.71,16
2743,0.000119,0.000118,-1e-06,-0.66,16
2744,7.8e-05,7.5e-05,-3e-06,-3.4,16
2745,9e-05,8.7e-05,-2e-06,-2.75,16
2746,8.8e-05,8.8e-05,-0.0,-0.12,16
2747,8.8e-05,8.6e-05,-2e-06,-2.19,16
2748,8.4e-05,8e-05,-4e-06,-4.18,16
2749,8.7e-05,8.5e-05,-2e-06,-2.08,16
2750,8.9e-05,8.8e-05,-1e-06,-1.51,16
2751,0.000119,0.000118,-1e-06,-0.66,16
2752,7.8e-05,7.5e-05,-3e-06,-3.57,16
2753,8.2e-05,8e-05,-2e-06,-2.6,16
2754,9.1e-05,9e-05,-0.0,-0.35,16
2755,6.1e-05,5.9e-05,-2e-06,-3.31,16
2756,7.4e-05,7.2e-05,-2e-06,-2.99,16
2757,0.000103,0.000103,-0.0,-0.46,16
2758,8.6e-05,8.5e-05,-1e-06,-1.63,16
2759,0.000115,0.000114,-1e-06,-0.94,16
2760,9.6e-05,9.4e-05,-2e-06,-2.14,16
2761,0.00012,0.000117,-3e-06,-2.45,16
2762,9.6e-05,9.4e-05,-2e-06,-1.91,16
2763,7.6e-05,7.4e-05,-2e-06,-2.66,16
2764,8e-05,7.8e-05,-3e-06,-3.17,16
2765,9.2e-05,9.1e-05,-2e-06,-1.69,16
2766,8.8e-05,8.8e-05,-1e-06,-0.88,16
2767,9.1e-05,8.9e-05,-2e-06,-2.18,16
2768,0.000112,0.000107,-5e-06,-4.16,16
2769,9.5e-05,9.4e-05,-1e-06,-0.92,16
2770,9e-05,8.8e-05,-2e-06,-2.43,16
2771,8.9e-05,8.7e-05,-2e-06,-2.71,16
2772,7.4e-05,7.2e-05,-2e-06,-2.95,16
2773,7.2e-05,7.1e-05,-1e-06,-1.78,16
2774,9.4e-05,9.1e-05,-2e-06,-2.53,16
2775,0.000119,0.000119,-0.0,-0.41,16
2776,8.6e-05,8.3e-05,-3e-06,-3.18,16
2777,0.00012,0.000117,-3e-06,-2.61,16
2778,9.7e-05,9.4e-05,-3e-06,-3.19,16
2779,0.000103,0.000102,-1e-06,-0.57,16
2780,7.7e-05,7.5e-05,-2e-06,-3.19,16
2781,0.000103,0.000101,-2e-06,-2.35,16
2782,8.7e-05,8.5e-05,-2e-06,-2.61,16
2783,0.000115,0.000114,-1e-06,-0.98,16
2784,8.9e-05,8.8e-05,-1e-06,-1.29,16
2785,8.8e-05,8.8e-05,-1e-06,-0.76,16
2786,9.7e-05,9.4e-05,-3e-06,-3.23,16
2787,8.8e-05,8.6e-05,-2e-06,-2.03,16
2788,8.4e-05,8.1e-05,-3e-06,-3.67,16
2789,9.4e-05,9.1e-05,-4e-06,-3.94,16
2790,8.6e-05,8.5e-05,-1e-06,-1.64,16
2791,9.2e-05,9.1e-05,-1e-06,-1.56,16
2792,0.0001,9.8e-05,-1e-06,-1.29,16
2793,6.3e-05,6e-05,-4e-06,-5.58,16
2794,6.7e-05,6.3e-05,-4e-06,-5.77,16
2795,9.4e-05,9.3e-05,-1e-06,-1.57,16
2796,8.8e-05,8.6e-05,-2e-06,-1.88,16
2797,9.3e-05,9.1e-05,-1e-06,-1.53,16
2798,8.5e-05,8.4e-05,-1e-06,-0.7,16
2799,9.1e-05,9e-05,-1e-06,-1.07,16
2800,7.6e-05,7.5e-05,-1e-06,-1.3,16
2801,0.000102,9.9e-05,-3e-06,-2.51,16
2802,9.6e-05,9.4e-05,-2e-06,-1.75,16
2803,6.1e-05,5.9e-05,-2e-06,-3.31,16
2804,6e-05,5.7e-05,-3e-06,-5.22,16
2805,9.2e-05,9.2e-05,-0.0,-0.3,16
2806,0.000119,0.000117,-2e-06,-1.74,16
2807,9.5e-05,9.4e-05,-1e-06,-0.94,16
2808,8.2e-05,7.9e-05,-2e-06,-2.64,16
2809,0.00012,0.000117,-3e-06,-2.62,16
2810,8.7e-05,8.4e-05,-3e-06,-3.99,16
2811,9.1e-05,8.9e-05,-2e-06,-1.84,16
2812,8.8e-05,8.6e-05,-2e-06,-1.78,16
2813,0.000103,0.000101,-2e-06,-2.29,16
2814,8.5e-05,8.4e-05,-1e-06,-0.73,16
2815,9.1e-05,9e-05,-1e-06,-1.0,16
2816,8.9e-05,8.8e-05,-1e-06,-1.28,16
2817,0.00012,0.000117,-3e-06,-2.63,16
2818,8.8e-05,8.7e-05,-0.0,-0.55,16
2819,8.8e-05,8.6e-05,-2e-06,-1.96,16
2820,6e-05,5.7e-05,-3e-06,-5.18,16
2821,9.4e-05,9.1e-05,-3e-06,-3.61,16
2822,8.8e-05,8.7e-05,-1e-06,-1.28,16
2823,9.5e-05,9.4e-05,-1e-06,-0.89,16
2824,0.000112,0.000107,-5e-06,-4.34,16
2825,8.8e-05,8.8e-05,-1e-06,-0.6,16
2826,9e-05,8.9e-05,-2e-06,-1.78,16
2827,8.9e-05,8.7e-05,-2e-06,-2.63,16
2828,7.4e-05,7.2e-05,-2e-06,-2.73,16
2829,7e-05,7e-05,0.0,0.3,16
2830,7.5e-05,7.2e-05,-3e-06,-3.54,16
2831,7.4e-05,7.3e-05,-1e-06,-0.81,16
2832,7.6e-05,7.1e-05,-5e-06,-6.48,16
2833,9.8e-05,9.5e-05,-2e-06,-2.38,16
2834,8.7e-05,8.4e-05,-3e-06,-3.83,16
2835,0.0001,9.8e-05,-2e-06,-1.67,16
2836,8.9e-05,8.6e-05,-3e-06,-3.16,16
2837,0.000103,0.000104,1e-06,0.52,16
2838,8.7e-05,8.7e-05,-0.0,-0.03,16
2839,0.000101,0.0001,-1e-06,-0.64,16
2840,9.7e-05,9.5e-05,-2e-06,-2.22,16
2841,9.8e-05,9.5e-05,-2e-06,-2.34,16
2842,9.8e-05,9.6e-05,-1e-06,-1.45,16
2843,8.8e-05,8.6e-05,-2e-06,-1.84,16
2844,8.4e-05,8.1e-05,-3e-06,-3.24,16
2845,8.7e-05,8.5e-05,-2e-06,-1.76,16
2846,7.1e-05,6.9e-05,-2e-06,-2.46,16
2847,9.2e-05,9.1e-05,-1e-06,-1.28,16
2848,0.0001,9.9e-05,-1e-06,-0.6,16
2849,9e-05,8.8e-05,-2e-06,-2.49,16
2850,0.000149,0.000146,-3e-06,-2.1,16
2851,8.8e-05,8.7e-05,-1e-06,-1.62,16
2852,9.3e-05,9.2e-05,-0.0,-0.36,16
2853,9.2e-05,9.1e-05,-1e-06,-1.57,16
2854,6.2e-05,5.9e-05,-2e-06,-3.39,16
2855,0.000118,0.000117,-1e-06,-0.46,16
2856,0.000112,0.000107,-5e-06,-4.44,16
2857,9e-05,8.8e-05,-2e-06,-2.47,16
2858,8.7e-05,8.4e-05,-3e-06,-3.83,16
2859,8.8e-05,8.7e-05,-1e-06,-1.34,16
2860,6.6e-05,6.5e-05,-1e-06,-0.98,16
2861,8.7e-05,8.5e-05,-2e-06,-1.77,16
2862,8.7e-05,8.5e-05,-2e-06,-2.31,16
2863,0.000108,0.000107,-1e-06,-1.11,16
2864,0.0001,9.9e-05,-0.0,-0.48,16
2865,9.5e-05,9.5e-05,-0.0,-0.16,16
2866,7.8e-05,7.6e-05,-1e-06,-1.52,16
2867,0.000115,0.000114,-2e-06,-1.57,16
2868,8.4e-05,8.2e-05,-2e-06,-2.91,16
2869,9.3e-05,9.2e-05,-1e-06,-0.77,16
2870,8.5e-05,8.4e-05,-1e-06,-0.82,16
2871,9.1e-05,9.1e-05,-0.0,-0.42,16
2872,7.8e-05,7.5e-05,-3e-06,-3.73,16
2873,9.1e-05,9e-05,-1e-06,-1.36,16
2874,0.000149,0.000146,-3e-06,-1.87,16
2875,8.8e-05,8.6e-05,-2e-06,-1.79,16
2876,6e-05,5.7e-05,-3e-06,-5.22,16
2877,7e-05,7e-05,0.0,0.61,16
2878,7.1e-05,6.9e-05,-2e-06,-2.68,16
2879,9.2e-05,9.1e-05,-1e-06,-1.32,16
2880,7.6e-05,7.5e-05,-1e-06,-1.19,16
2881,9.5e-05,9.5e-05,-0.0,-0.3,16
2882,7.4e-05,7.4e-05,-0.0,-0.35,16
2883,9e-05,9e-05,-0.0,-0.22,16
2884,6.6e-05,6.5e-05,-1e-06,-1.03,16
2885,0.000103,0.000104,1e-06,0.95,16
2886,7.1e-05,6.9e-05,-2e-06,-2.67,16
2887,9.5e-05,9.4e-05,-1e-06,-0.62,16
2888,7.8e-05,7.5e-05,-3e-06,-3.55,16
2889,9.5e-05,9.5e-05,-0.0,-0.28,16
2890,9.8e-05,9.7e-05,-1e-06,-1.27,16
2891,9.1e-05,9e-05,-2e-06,-1.74,16
2892,8.8e-05,8.6e-05,-2e-06,-2.09,16
2893,7e-05,7e-05,0.0,0.55,16
2894,7.1e-05,6.9e-05,-2e-06,-2.59,16
2895,7.4e-05,7.3e-05,-1e-06,-0.72,16
2896,7.6e-05,7.5e-05,-1e-06,-1.2,16
2897,9.5e-05,9.5e-05,-0.0,-0.24,16
2898,7.8e-05,7.7e-05,-1e-06,-1.48,16
2899,9e-05,8.9e-05,-0.0,-0.37,16
2900,8.8e-05,8.6e-05,-2e-06,-1.86,16
2901,9.3e-05,9.2e-05,-1e-06,-0.71,16
2902,8.9e-05,8.8e-05,-1e-06,-1.0,16
2903,0.000122,0.000122,-0.0,-0.03,16
2904,7.6e-05,7.1e-05,-5e-06,-6.29,16
2905,6.3e-05,6e-05,-3e-06,-5.29,16
2906,7.4e-05,7.4e-05,-0.0,-0.19,16
2907,8.8e-05,8.6e-05,-2e-06,-1.74,16
2908,8.9e-05,8.7e-05,-3e-06,-3.01,16
2909,9.2e-05,9.1e-05,-1e-06,-1.48,16
2910,8.7e-05,8.6e-05,-0.0,-0.38,16
2911,7.4e-05,7.3e-05,-1e-06,-0.76,16
2912,8.9e-05,8.8e-05,-1e-06,-1.27,16
2913,9.1e-05,9e-05,-1e-06,-1.26,16
2914,9.6e-05,9.4e-05,-2e-06,-1.81,16
2915,8.9e-05,8.7e-05,-2e-06,-2.31,16
2916,7.4e-05,7.2e-05,-2e-06,-2.49,16
2917,0.000103,0.000102,-2e-06,-1.58,16
2918,7.5e-05,7.2e-05,-2e-06,-3.17,16
2919,9.4e-05,9.2e-05,-1e-06,-1.48,16
2920,9.6e-05,9.4e-05,-2e-06,-2.13,16
2921,8.5e-05,8.2e-05,-3e-06,-3.64,16
2922,9e-05,8.8e-05,-2e-06,-1.92,16
2923,8.8e-05,8.6e-05,-1e-06,-1.66,16
2924,8e-05,7.8e-05,-2e-06,-3.02,16
2925,9.4e-05,9.2e-05,-3e-06,-2.92,16
2926,8.8e-05,8.8e-05,-1e-06,-0.79,16
2927,0.000108,0.000107,-1e-06,-1.03,16
2928,8.2e-05,8e-05,-2e-06,-2.29,16
2929,8.8e-05,8.8e-05,-1e-06,-0.57,16
2930,7.4e-05,7.4e-05,-0.0,-0.26,16
2931,8.8e-05,8.6e-05,-1e-06,-1.67,16
2932,6.6e-05,6.5e-05,-1e-06,-1.25,16
2933,7.2e-05,7.2e-05,-1e-06,-0.91,16
2934,8.4e-05,8.4e-05,-1e-06,-0.66,16
2935,7.4e-05,7.3e-05,-1e-06,-0.8,16
2936,9.7e-05,9.5e-05,-2e-06,-2.11,16
2937,9e-05,8.8e-05,-2e-06,-2.4,16
2938,7.4e-05,7.4e-05,-0.0,-0.2,16
2939,9.4e-05,9.3e-05,-2e-06,-1.63,16
2940,0.000107,0.000104,-3e-06,-2.51,16
2941,9.2e-05,9.2e-05,-0.0,-0.36,16
2942,0.000119,0.000117,-2e-06,-1.42,16
2943,0.000118,0.000118,-0.0,-0.18,16
2944,7.8e-05,7.5e-05,-3e-06,-3.94,16
2945,9.8e-05,9.5e-05,-2e-06,-2.35,16
2946,7.8e-05,7.7e-05,-1e-06,-1.4,16
2947,9.4e-05,9.3e-05,-1e-06,-1.56,16
2948,8.4e-05,8.2e-05,-2e-06,-2.7,16
2949,7e-05,7e-05,0.0,0.63,16
2950,8.9e-05,8.9e-05,-1e-06,-0.6,16
2951,0.000115,0.000114,-1e-06,-0.62,16
2952,0.000112,0.000107,-5e-06,-4.48,16
2953,9.3e-05,9.2e-05,-1e-06,-1.04,16
2954,9.7e-05,9.4e-05,-3e-06,-3.09,16
2955,0.000124,0.000122,-2e-06,-1.71,16
2956,6e-05,5.7e-05,-3e-06,-5.31,16
2957,9.3e-05,9.2e-05,-1e-06,-0.61,16
2958,8.7e-05,8.6e-05,-1e-06,-0.77,16
2959,9.1e-05,9.1e-05,-0.0,-0.29,16
2960,7.8e-05,7.5e-05,-3e-06,-3.87,16
2961,9.1e-05,9e-05,-1e-06,-1.16,16
2962,9.1e-05,9.1e-05,0.0,0.42,16
2963,7.6e-05,7.5e-05,-2e-06,-2.03,16
2964,7.4e-05,7.2e-05,-2e-06,-2.39,16
2965,0.000103,0.000103,-0.0,-0.25,16
2966,8.4e-05,8.4e-05,-1e-06,-0.61,16
2967,9.5e-05,9.5e-05,-0.0,-0.31,16
2968,8.2e-05,8e-05,-2e-06,-2.14,16
2969,8.3e-05,8.1e-05,-2e-06,-2.38,16
2970,0.000149,0.000146,-2e-06,-1.65,16
2971,8.8e-05,8.6e-05,-1e-06,-1.69,16
2972,8.8e-05,8.6e-05,-2e-06,-1.83,16
2973,9.8e-05,9.7e-05,-2e-06,-1.61,16
2974,8.7e-05,8.6e-05,-1e-06,-0.65,16
2975,9.2e-05,9.1e-05,-1e-06,-0.91,16
2976,0.0001,0.0001,0.0,0.1,16
2977,8.5e-05,8.2e-05,-3e-06,-3.52,16
2978,9.8e-05,9.7e-05,-1e-06,-1.03,16
2979,0.0001,9.9e-05,-1e-06,-1.18,16
2980,6.6e-05,6.5e-05,-1e-06,-1.18,16
2981,9.2e-05,9.1e-05,-1e-06,-1.16,16
2982,8.6e-05,8.5e-05,-1e-06,-1.4,16
2983,0.000108,0.000107,-1e-06,-1.3,16
2984,7.6e-05,7.5e-05,-1e-06,-1.18,16
2985,9.1e-05,9e-05,-1e-06,-1.15,16
2986,7.8e-05,7.7e-05,-1e-06,-1.27,16
2987,0.000103,0.000102,-0.0,-0.36,16
2988,6.6e-05,6.5e-05,-1e-06,-1.15,16
2989,7.2e-05,7.2e-05,-1e-06,-0.95,16
2990,6.2e-05,6e-05,-2e-06,-3.14,16
2991,9.1e-05,9e-05,-2e-06,-1.94,16
2992,7.8e-05,7.5e-05,-3e-06,-3.58,16
2993,8.3e-05,8.1e-05,-2e-06,-2.33,16
2994,9.6e-05,9.4e-05,-2e-06,-1.98,16
2995,8.8e-05,8.8e-05,-0.0,-0.45,16
2996,6.6e-05,6.5e-05,-1e-06,-1.2,16
2997,7e-05,7e-05,1e-06,0.77,16
2998,9.4e-05,9.2e-05,-1e-06,-1.15,16
2999,9.5e-05,9.5e-05,-0.0,-0.25,16
